0
0
0
487
1022
1022
1022
1022
1022
905
809
756
721
724
728
731
359
0
0
0
0
0
0
487
1022
1022
1022
1022
1022
903
805
758
722
721
726
730
361
0
0
0
0
0
0
486
1022
1022
1022
1022
1022
907
809
754
718
721
727
728
353
0
0
0
0
0
0
489
1022
1022
1022
1022
1022
905
812
758
720
720
730
731
353
0
0
0
0
0
0
494
1022
1022
1022
1022
1022
907
808
758
720
721
728
729
351
0
0
0
0
0
0
498
1022
1022
1022
1022
1022
907
809
755
717
721
724
729
352
0
0
0
0
0
0
489
1022
1022
1022
1022
1022
906
810
756
719
723
729
728
344
0
0
0
0
0
0
504
1022
1022
1022
1022
1022
905
809
757
721
720
726
726
340
0
0
0
0
0
0
497
1022
1022
1022
1022
1022
903
812
759
722
723
728
730
343
0
0
0
0
0
0
496
1022
1022
1022
1022
1022
900
806
757
722
723
727
724
338
0
0
0
0
0
0
500
1022
1022
1022
1022
1022
897
812
761
720
719
726
721
329
0
0
0
0
0
0
512
1022
1022
1022
1022
1022
897
803
749
718
719
726
727
338
0
0
0
0
0
0
506
1022
1022
1022
1022
1022
905
807
755
719
721
726
723
332
0
0
0
0
0
0
510
1022
1022
1022
1022
1022
900
803
752
720
720
728
727
331
0
0
0
0
0
0
509
1022
1022
1022
1022
1022
898
807
755
719
720
727
723
323
0
0
0
0
0
0
513
1022
1022
1022
1022
1022
898
803
755
719
721
727
724
327
0
0
0
0
0
0
520
1022
1022
1022
1022
1022
898
806
753
720
719
729
727
327
0
0
0
0
0
0
519
1022
1022
1022
1022
1022
895
807
755
723
722
724
723
317
0
0
0
0
0
0
528
1022
1022
1022
1022
1022
902
808
755
721
723
726
726
320
0
0
0
0
0
0
519
1022
1022
1022
1022
1022
894
808
758
723
725
730
723
316
0
0
0
0
0
0
527
1022
1022
1022
1022
1022
894
805
755
720
721
728
723
312
0
0
0
0
0
0
530
1022
1022
1022
1022
1022
896
807
753
720
722
728
725
313
0
0
0
0
0
0
532
1022
1022
1022
1022
1022
899
807
756
722
724
730
725
310
0
0
0
0
0
0
529
1022
1022
1022
1022
1022
892
806
754
721
722
729
723
302
0
0
0
0
0
0
538
1022
1022
1022
1022
1022
896
808
753
722
723
729
721
304
0
0
0
0
0
0
540
1022
1022
1022
1022
1022
891
800
753
719
721
728
722
300
0
0
0
0
0
0
542
1022
1022
1022
1022
1022
894
807
755
723
725
730
723
301
0
0
0
0
0
0
543
1022
1022
1022
1022
1022
890
807
753
720
721
728
718
294
0
0
0
0
0
0
547
1022
1022
1022
1022
1022
891
812
759
725
727
732
721
293
0
0
0
0
0
0
551
1022
1022
1022
1022
1022
891
802
747
719
720
728
718
289
0
0
0
0
0
0
554
1022
1022
1022
1022
1022
895
804
748
717
719
727
715
283
0
0
0
0
0
0
553
1022
1022
1022
1022
1022
892
803
750
719
723
729
721
289
0
0
0
0
0
0
552
1022
1022
1022
1022
1022
886
801
751
723
721
729
718
279
0
0
0
0
0
0
558
1022
1022
1022
1022
1022
887
800
744
715
718
722
710
279
0
0
0
0
0
0
561
1022
1022
1022
1022
1022
889
801
746
716
718
727
713
274
0
0
0
0
0
0
568
1022
1022
1022
1022
1022
888
803
748
717
715
723
710
267
0
0
0
0
0
0
570
1022
1022
1022
1022
1022
891
806
753
726
723
729
715
271
0
0
0
0
0
0
570
1022
1022
1022
1022
1022
887
803
746
716
717
722
711
266
0
0
0
0
0
0
569
1022
1022
1022
1022
1022
883
800
746
716
716
727
714
266
0
0
0
0
0
0
575
1022
1022
1022
1022
1022
887
807
753
723
725
733
713
266
0
0
0
0
0
0
577
1022
1022
1022
1022
1022
892
804
749
723
726
733
716
265
0
0
0
0
0
0
583
1022
1022
1022
1022
1022
885
803
751
722
719
729
715
262
0
0
0
0
0
0
587
1022
1022
1022
1022
1022
883
801
752
723
722
728
711
254
0
0
0
0
0
0
590
1022
1022
1022
1022
1022
880
810
758
729
726
731
711
252
0
0
0
0
0
0
589
1022
1022
1022
1022
1022
882
799
745
722
724
733
710
251
0
0
0
0
0
0
589
1022
1022
1022
1022
1022
883
799
746
719
721
727
705
242
0
0
0
0
0
0
593
1022
1022
1022
1022
1022
882
801
747
723
722
727
705
238
0
0
0
0
0
0
598
1022
1022
1022
1022
1022
877
799
745
719
718
721
704
237
0
0
0
0
0
0
600
1022
1022
1022
1022
1022
881
801
742
715
718
724
703
233
0
0
0
0
0
0
606
1022
1022
1022
1022
1022
878
800
746
721
723
729
704
228
0
0
0
0
0
0
607
1022
1022
1022
1022
1022
870
803
752
725
719
725
700
225
0
0
0
0
0
11
611
1022
1022
1022
1022
1022
880
803
747
720
720
729
705
226
0
0
0
0
0
0
611
1022
1022
1022
1022
1022
876
801
744
720
718
727
702
220
0
0
0
0
0
8
617
1022
1022
1022
1022
1022
878
802
750
723
722
730
703
219
0
0
0
0
0
20
624
1022
1022
1022
1022
1022
880
798
743
719
720
729
702
216
0
0
0
0
0
29
625
1022
1022
1022
1022
1022
880
799
743
720
724
729
697
211
0
0
0
0
0
33
629
1022
1022
1022
1022
1022
874
799
742
717
720
728
697
204
0
0
0
0
0
40
630
1022
1022
1022
1022
1022
871
796
743
723
723
730
698
207
0
0
0
0
0
31
625
1022
1022
1022
1022
1022
873
793
736
720
719
728
697
205
0
0
0
0
0
35
632
1022
1022
1022
1022
1022
872
792
734
716
719
727
693
196
0
0
0
0
0
43
639
1022
1022
1022
1022
1022
869
794
742
721
718
725
690
188
0
0
0
0
0
59
645
1022
1022
1022
1022
1022
871
796
743
723
727
731
692
189
0
0
0
0
0
54
639
1022
1022
1022
1022
1022
868
797
743
723
727
731
689
185
0
0
0
0
0
59
647
1022
1022
1022
1022
1022
875
794
740
723
721
727
691
185
0
0
0
0
0
66
652
1022
1022
1022
1022
1022
874
796
740
722
725
732
691
182
0
0
0
0
0
71
657
1022
1022
1022
1022
1022
873
797
743
726
723
729
690
176
0
0
0
0
0
79
662
1022
1022
1022
1022
1022
875
800
745
723
721
732
687
175
0
0
0
0
0
74
665
1022
1022
1022
1022
1022
867
799
745
729
728
737
690
176
0
0
0
0
0
76
666
1022
1022
1022
1022
1022
872
797
739
721
721
729
685
167
0
0
0
0
0
85
670
1022
1022
1022
1022
1022
870
799
743
728
724
736
686
165
0
0
0
0
0
89
676
1022
1022
1022
1022
1022
868
792
737
720
719
725
675
156
0
0
0
0
0
95
681
1022
1022
1022
1022
1022
868
794
737
720
721
728
676
154
0
0
0
0
0
98
679
1022
1022
1022
1022
1021
863
796
741
722
720
730
678
151
0
0
0
0
0
96
678
1022
1022
1022
1022
1022
865
791
732
716
719
728
673
145
0
0
0
0
0
99
691
1022
1022
1022
1022
1022
863
787
732
717
717
726
671
138
0
0
0
0
0
106
693
1022
1022
1022
1022
1021
865
789
735
720
722
728
672
140
0
0
0
0
0
100
689
1022
1022
1022
1022
1021
860
792
734
720
724
729
669
135
0
0
0
0
0
105
691
1022
1022
1022
1022
1021
859
799
743
728
724
732
671
132
0
0
0
0
0
108
702
1022
1022
1022
1022
1022
863
793
736
719
721
732
669
128
0
0
0
0
0
117
699
1022
1022
1022
1022
1021
863
794
736
720
719
729
667
127
0
0
0
0
0
116
705
1022
1022
1022
1022
1021
861
793
734
719
720
728
665
121
0
0
0
0
0
125
716
1022
1022
1022
1022
1022
867
794
740
728
726
731
664
120
0
0
0
0
0
127
717
1023
1022
1022
1022
1021
861
793
736
721
720
729
661
116
0
0
0
0
0
127
719
1022
1022
1022
1022
1020
858
794
737
726
726
731
655
109
0
0
0
0
0
140
727
1022
1022
1022
1022
1020
861
792
735
726
725
729
659
107
0
0
0
0
0
136
725
1022
1022
1022
1022
1021
862
793
735
723
723
730
659
107
0
0
0
0
0
142
727
1022
1022
1022
1022
1020
854
792
735
723
723
732
655
103
0
0
0
0
0
135
720
1022
1022
1022
1022
1014
851
789
733
720
719
729
650
91
0
0
0
0
0
148
736
1022
1022
1022
1022
1009
853
785
730
720
720
727
645
87
0
0
0
0
0
147
736
1022
1022
1022
1022
1015
856
787
731
726
723
733
650
91
0
0
0
0
0
158
749
1022
1022
1022
1022
1020
859
789
731
723
725
734
647
84
0
0
0
0
0
154
750
1022
1022
1022
1022
1012
852
791
734
726
724
730
641
75
0
0
0
0
0
166
758
1022
1022
1022
1022
1005
850
786
732
721
720
729
636
70
0
0
0
0
0
169
760
1022
1022
1022
1022
1007
851
788
733
725
726
734
639
67
0
0
0
0
0
183
769
1023
1022
1022
1022
1006
852
785
729
722
724
733
632
63
0
0
0
0
0
175
767
1022
1022
1022
1022
1005
850
786
732
724
723
728
635
63
0
0
0
0
0
181
776
1022
1022
1022
1022
999
845
783
728
721
721
729
629
57
0
0
0
0
0
185
779
1022
1022
1022
1022
997
849
787
730
724
722
728
627
51
0
0
0
0
0
184
776
1022
1022
1022
1022
992
845
781
725
720
720
728
628
52
0
0
0
0
0
185
782
1022
1022
1022
1022
991
847
779
724
720
719
731
619
41
0
0
0
0
0
195
787
1022
1022
1022
1022
990
848
784
726
720
721
732
619
39
0
0
0
0
0
201
789
1022
1022
1022
1022
993
850
786
728
721
721
728
617
36
0
0
0
0
0
200
793
1022
1022
1022
1022
979
839
781
724
719
721
729
611
27
0
0
0
0
0
208
799
1022
1022
1022
1022
984
847
783
727
723
720
733
610
24
0
0
0
0
0
217
805
1022
1022
1022
1022
982
844
781
725
722
722
731
606
23
0
0
0
0
0
214
808
1022
1022
1022
1022
985
846
784
727
721
721
733
607
23
0
0
0
0
0
219
814
1022
1022
1022
1022
985
843
779
723
723
722
728
604
17
0
0
0
0
0
219
809
1023
1022
1022
1022
980
844
793
735
731
728
734
601
13
0
0
0
0
0
228
819
1022
1022
1022
1022
977
844
791
732
730
729
737
602
14
0
0
0
0
0
227
820
1022
1022
1022
1022
979
841
791
735
730
730
737
596
5
0
0
0
0
0
240
830
1022
1022
1022
1022
976
840
780
723
722
721
730
589
3
0
0
0
0
0
242
834
1022
1022
1022
1022
969
832
782
725
725
724
732
590
2
0
0
0
0
0
245
840
1022
1022
1022
1022
970
839
780
725
725
729
738
589
1
0
0
0
0
0
246
840
1023
1022
1022
1022
964
835
780
726
725
725
734
583
0
0
0
0
0
0
251
843
1022
1022
1022
1022
971
836
779
725
725
724
734
581
0
0
0
0
0
0
256
850
1022
1022
1022
1022
967
838
782
727
724
723
731
578
0
0
0
0
0
0
254
844
1023
1022
1022
1022
967
836
781
725
726
726
732
572
0
0
0
0
0
0
256
853
1022
1022
1022
1022
969
844
780
730
731
731
734
572
0
0
0
0
0
0
257
845
1022
1022
1022
1022
968
837
777
724
727
728
734
570
0
0
0
0
0
0
267
860
1022
1022
1022
1022
963
829
778
721
722
723
732
566
0
0
0
0
0
0
273
867
1022
1022
1022
1022
965
839
778
724
725
722
735
564
0
0
0
0
0
0
273
867
1022
1022
1022
1022
964
839
779
722
726
729
737
562
0
0
0
0
0
0
278
873
1022
1022
1022
1022
962
835
780
727
725
724
735
557
0
0
0
0
0
0
284
880
1022
1022
1022
1022
958
833
775
722
724
725
735
555
0
0
0
0
0
0
287
884
1022
1022
1022
1022
961
835
780
728
724
726
736
547
0
0
0
0
0
0
296
887
1022
1022
1022
1022
960
832
777
722
723
725
732
546
0
0
0
0
0
0
301
892
1023
1022
1022
1022
954
829
775
721
723
725
734
544
0
0
0
0
0
0
300
893
1022
1022
1022
1022
956
831
772
721
726
728
734
544
0
0
0
0
0
0
295
896
1022
1022
1022
1022
953
830
774
722
725
726
731
535
0
0
0
0
0
0
300
896
1023
1022
1022
1022
949
827
777
725
728
729
737
531
0
0
0
0
0
0
309
908
1022
1022
1022
1022
956
831
776
722
723
721
734
531
0
0
0
0
0
0
310
910
1022
1022
1022
1022
950
827
773
721
722
723
733
525
0
0
0
0
0
0
315
914
1022
1022
1022
1022
947
825
775
722
726
728
735
524
0
0
0
0
0
0
318
920
1022
1022
1022
1022
950
830
776
723
725
724
735
520
0
0
0
0
0
0
320
918
1022
1022
1022
1022
949
829
774
723
725
729
737
521
0
0
0
0
0
0
322
927
1023
1022
1022
1022
954
833
773
723
725
726
734
512
0
0
0
0
0
0
327
928
1023
1022
1022
1022
949
828
773
722
726
729
737
511
0
0
0
0
0
0
329
933
1022
1022
1022
1022
942
826
772
722
727
729
736
508
0
0
0
0
0
0
329
931
1022
1022
1022
1022
937
824
769
719
722
726
732
500
0
0
0
0
0
0
336
936
1022
1022
1022
1022
936
819
769
716
717
719
726
487
0
0
0
0
0
0
328
934
1022
1022
1022
1022
931
814
759
711
715
718
726
489
0
0
0
0
0
0
344
943
1022
1022
1022
1022
940
819
765
716
719
722
730
491
0
0
0
0
0
0
342
943
1022
1022
1022
1022
935
816
762
713
716
719
729
487
0
0
0
0
0
0
355
959
1022
1022
1022
1022
941
825
768
721
722
724
735
484
0
0
0
0
0
0
365
966
1022
1022
1022
1022
942
830
772
726
727
729
735
481
0
0
0
0
0
0
369
970
1023
1022
1022
1022
935
822
770
723
720
724
731
472
0
0
0
0
0
0
373
968
1023
1022
1022
1022
932
816
762
715
717
720
726
468
0
0
0
0
0
0
367
965
1023
1022
1022
1022
928
816
764
718
721
721
728
467
0
0
0
0
0
0
369
969
1022
1022
1022
1022
927
812
759
713
716
718
722
457
0
0
0
0
0
0
335
944
1023
1022
1022
1022
862
740
689
665
707
756
802
565
0
0
0
0
0
0
349
916
1022
1022
1022
1022
902
809
774
741
752
756
762
487
0
0
0
0
0
0
383
981
1023
1022
1022
1022
928
817
765
719
719
718
722
449
0
0
0
0
0
0
389
988
1022
1022
1022
1022
934
824
774
725
724
728
732
454
0
0
0
0
0
0
395
988
1023
1022
1022
1022
929
817
763
717
720
720
725
444
0
0
0
0
0
0
403
997
1022
1022
1022
1022
922
816
763
713
717
716
723
441
0
0
0
0
0
0
406
994
1023
1022
1022
1022
914
802
749
707
709
712
721
435
0
0
0
0
0
0
399
995
1023
1022
1022
1022
913
803
752
710
711
715
718
434
0
0
0
0
0
0
405
993
1022
1022
1022
1022
917
812
760
714
716
720
728
445
0
0
0
0
0
0
433
1016
1023
1022
1022
1022
1002
912
883
853
867
879
889
604
20
0
0
0
0
12
563
1022
1023
1022
1022
1022
1022
925
843
783
786
792
794
497
0
0
0
0
0
0
490
1022
1022
1022
1022
1022
1022
992
939
887
867
843
820
518
0
0
0
0
0
0
519
1022
1022
1022
1022
1022
983
886
835
790
796
798
801
545
47
0
0
0
0
138
601
1022
1022
1022
1022
1022
947
864
812
774
767
758
747
515
78
0
0
0
0
121
541
985
1022
1022
1022
916
675
498
391
317
301
303
331
95
0
0
0
0
0
0
360
856
1022
1022
1022
1021
900
827
771
704
673
652
638
330
0
0
0
0
0
0
426
964
1022
1022
1022
916
710
593
526
472
462
458
459
165
0
0
0
0
0
0
186
729
1022
1022
1022
831
666
585
539
508
515
522
525
234
0
0
0
0
0
0
332
880
1022
1022
1022
958
795
711
663
630
632
627
631
336
0
0
0
0
0
0
413
953
1022
1022
1022
1021
845
763
724
691
692
688
687
385
0
0
0
0
0
0
442
977
1022
1022
1022
1022
865
778
732
694
693
696
695
382
0
0
0
0
0
0
426
969
1022
1022
1022
1021
843
755
711
678
684
688
694
384
0
0
0
0
0
0
452
996
1022
1022
1022
1022
849
750
695
652
648
648
665
380
0
0
0
0
0
32
571
1022
1022
1022
1022
1022
965
867
815
779
786
790
790
454
0
0
0
0
0
0
542
1022
1022
1022
1022
1022
975
893
857
824
825
824
817
479
0
0
0
0
0
0
532
1022
1022
1022
1022
1022
937
859
819
785
791
800
802
479
0
0
0
0
0
170
716
1022
1022
1022
1022
1022
1022
993
923
863
835
809
776
427
0
0
0
0
0
0
255
750
1022
1022
940
691
530
438
377
346
331
310
287
0
0
0
0
0
0
0
0
532
992
1022
836
626
487
413
376
345
345
348
343
36
0
0
0
0
0
0
346
908
1022
1022
1022
1022
913
846
814
794
794
795
794
486
0
0
0
0
0
284
795
1022
1022
1022
1022
1022
1022
1022
1022
1022
1022
1022
1022
736
215
0
0
0
0
267
739
1022
1022
1022
1022
1022
1021
935
879
838
830
824
822
492
0
0
0
0
0
83
548
1020
1023
1022
1022
976
806
711
654
612
602
593
582
247
0
0
0
0
0
0
339
847
1022
1022
1021
774
613
534
495
473
487
505
525
218
0
0
0
0
0
18
526
1020
1022
1022
1022
961
787
683
612
560
537
516
487
144
0
0
0
0
0
0
278
782
1022
1022
1019
791
643
576
540
516
520
524
515
181
0
0
0
0
0
0
461
978
1022
1022
1022
975
834
768
729
703
702
703
703
371
0
0
0
0
0
111
598
1022
1022
1022
1022
1022
920
857
834
819
834
851
867
554
70
0
0
0
0
327
821
1022
1023
1022
1022
1022
1022
1022
984
941
928
924
909
560
43
0
0
0
0
175
643
1022
1022
1022
1022
1022
884
804
753
717
710
705
695
351
0
0
0
0
0
53
540
1021
1022
1022
1022
992
842
771
732
713
723
737
742
410
0
0
0
0
0
127
626
1022
1022
1022
1022
1022
1000
979
987
1007
1022
1022
1022
768
231
0
0
0
51
391
883
1023
1022
1022
1022
1022
972
866
791
736
703
679
643
235
0
0
0
0
0
0
436
994
1022
1022
1022
911
758
702
668
659
675
696
706
333
0
0
0
0
0
87
598
1022
1022
1022
1022
1022
939
905
904
906
928
949
955
585
58
0
0
0
0
386
920
1022
1022
1022
1022
1022
1022
1022
1022
937
872
806
724
307
0
0
0
0
0
0
0
406
727
634
282
0
0
0
0
0
0
0
0
0
0
0
0
0
0
0
0
331
774
799
580
425
347
334
355
385
440
514
578
307
0
0
0
0
33
368
812
1022
1022
1022
1022
1022
1022
1021
1022
1022
1022
1022
1022
983
553
276
197
311
521
835
1022
1022
1022
1022
1022
1022
1022
1022
1022
1022
1022
1022
1022
736
244
0
0
0
117
445
901
1022
1022
1022
1022
1022
960
863
790
739
716
697
668
290
0
0
0
0
0
0
490
973
1022
1022
1022
812
661
577
521
495
496
499
494
127
0
0
0
0
0
0
388
885
1022
1022
979
766
643
604
597
607
636
675
687
306
0
0
0
0
0
0
454
990
1022
1022
1022
881
739
679
641
625
629
651
671
319
0
0
0
0
0
204
668
1022
1022
1022
1022
908
747
674
634
617
624
634
632
277
0
0
0
0
0
323
842
1022
1022
1022
1022
1022
1022
1022
972
914
874
828
753
331
0
0
0
0
0
0
77
461
776
704
422
196
57
0
0
0
0
0
0
0
0
0
0
0
0
0
0
394
888
958
800
683
626
634
649
666
689
719
724
403
3
0
0
0
49
376
801
1022
1022
1022
1022
1022
996
987
998
1022
1022
1022
1022
843
425
163
112
262
494
841
1022
1022
1022
1022
1022
1022
1022
1022
1022
1022
1022
1022
1022
873
426
136
44
164
374
706
1022
1022
1022
1022
1022
1022
1022
1022
984
924
884
854
804
409
0
0
0
0
0
207
659
1022
1022
1022
1022
929
788
716
650
604
583
578
558
180
0
0
0
0
0
0
352
808
1022
1022
825
604
450
371
340
338
339
337
315
0
0
0
0
0
0
0
325
850
1022
1022
943
738
614
570
543
537
556
597
607
207
0
0
0
0
0
187
720
1022
1022
1022
1022
1022
1016
962
937
930
942
940
895
436
0
0
0
0
0
62
550
1022
1022
1022
1022
939
799
727
676
648
630
606
543
79
0
0
0
0
0
0
551
1022
1022
1022
1022
1022
1022
1020
1019
1022
1022
1022
1022
686
191
0
0
0
71
402
822
1022
1022
1022
1021
729
528
406
301
222
158
100
8
0
0
0
0
0
0
0
0
217
606
545
295
110
0
0
0
0
0
0
0
0
0
0
0
0
0
0
390
948
1022
1022
1022
1022
946
935
935
969
1020
1022
1022
788
380
135
96
269
513
892
1022
1022
1022
1022
1022
1022
1022
1022
1022
1022
1022
1022
1022
820
331
17
0
22
214
548
988
1022
1022
1022
1022
1022
1009
915
851
816
797
788
742
316
0
0
0
0
0
173
633
1022
1022
1022
1022
837
699
623
554
501
468
455
411
0
0
0
0
0
0
0
355
827
1022
1022
848
659
545
494
463
467
487
512
500
115
0
0
0
0
0
255
748
1022
1022
1022
1022
1022
1012
956
915
896
888
886
838
422
0
0
0
0
0
226
648
1022
1022
1022
896
633
443
321
213
134
69
19
0
0
0
0
0
0
0
0
0
303
699
671
499
393
352
368
395
451
515
578
580
201
0
0
0
0
0
245
724
1022
1022
1022
1022
1022
1021
983
961
967
982
1000
977
594
174
0
0
75
321
711
1022
1022
1022
1022
1022
1022
1022
1022
1022
985
944
910
832
393
0
0
0
0
0
202
621
1021
1022
1022
928
709
562
495
433
400
385
379
332
0
0
0
0
0
0
0
388
860
1022
1022
896
729
635
608
591
608
636
671
659
281
0
0
0
0
51
462
952
1022
1022
1022
1022
1022
1022
1022
1022
1022
1022
1022
1022
705
224
0
0
0
235
606
1022
1022
1022
1022
1022
1022
998
914
855
820
788
764
689
192
0
0
0
0
0
0
494
1002
1022
1022
904
660
503
409
327
295
294
316
284
0
0
0
0
0
0
57
664
1022
1022
1022
1022
1022
1022
1022
1022
1022
1022
1022
1022
699
219
0
0
0
188
548
1004
1022
1022
1022
1022
1022
967
912
861
831
799
767
686
196
0
0
0
0
0
197
739
1022
1022
1022
1022
1022
1022
1022
1022
1022
1022
1022
982
492
0
0
0
0
0
323
786
1022
1022
1022
1022
751
543
398
263
156
55
0
0
0
0
0
0
0
0
0
0
0
0
0
0
0
0
0
0
0
0
0
0
0
0
0
0
0
0
177
685
1022
1022
1022
1022
956
832
776
729
716
730
755
745
394
50
0
0
228
568
1022
1022
1022
1022
1022
1023
1022
1022
1022
1022
1022
1022
1022
1022
964
487
192
114
263
480
851
1022
1022
1022
1022
1022
1022
1022
1022
1022
1022
1022
1022
935
462
0
0
0
0
0
280
716
1022
1022
1022
1022
817
680
604
536
501
478
464
380
0
0
0
0
0
0
0
368
836
1022
1019
726
522
398
350
315
318
334
358
326
0
0
0
0
0
0
33
549
1022
1023
1022
1020
788
643
542
442
388
364
380
350
0
0
0
0
0
0
185
647
1022
1022
1022
1001
796
678
628
588
590
598
610
549
111
0
0
0
0
0
235
728
1022
1022
1022
1022
1022
960
947
948
990
1022
1022
1022
609
175
0
0
0
101
403
765
1022
1022
1022
727
456
266
143
27
0
0
0
0
0
0
0
0
0
0
0
0
278
639
583
447
383
391
456
513
597
671
736
721
337
0
0
0
0
184
585
1017
1022
1022
1022
1022
1022
928
835
757
725
710
719
670
288
0
0
0
73
369
816
1022
1022
1022
1022
1022
1022
1022
1022
1022
1022
1022
1022
1022
839
415
163
113
255
443
798
1022
1022
1022
1022
1022
1022
1022
1022
1022
1022
1022
1022
992
539
109
0
0
0
111
463
886
1022
1022
1022
1022
1022
912
862
816
799
771
748
648
183
0
0
0
0
0
211
673
1022
1022
1022
898
660
496
400
320
276
248
229
126
0
0
0
0
0
0
0
0
451
817
711
486
322
247
249
247
278
311
353
316
0
0
0
0
0
0
335
892
1022
1022
1022
1022
1022
1014
951
889
851
817
787
670
127
0
0
0
0
0
110
642
1022
1022
1022
1022
913
806
761
722
737
758
796
733
248
0
0
0
0
0
426
980
1022
1022
1022
1022
1022
1022
1022
1022
1022
1021
969
816
247
0
0
0
0
0
539
1022
1023
1022
1022
1022
1022
1022
1022
1022
1022
996
949
819
307
0
0
0
0
0
265
701
1022
1022
1022
737
466
252
98
0
0
0
0
0
0
0
0
0
0
0
0
0
0
154
0
0
0
0
0
0
0
0
0
0
0
0
0
0
0
0
251
754
1022
1022
1022
1022
942
838
799
765
780
803
842
799
408
70
0
5
316
664
1022
1022
1022
1022
1022
1022
1022
1022
1022
1022
1022
1022
1022
1022
815
353
82
33
192
403
796
1022
1022
1022
1022
1022
1022
1022
1022
999
964
929
904
775
282
0
0
0
0
0
326
775
1022
1022
1022
1020
798
660
588
518
494
473
462
345
0
0
0
0
0
0
0
466
970
1022
1022
871
696
600
567
530
533
543
572
494
23
0
0
0
0
0
237
756
1022
1022
1022
1022
1022
925
879
832
821
803
781
639
95
0
0
0
0
0
229
742
1022
1022
1022
1022
869
753
703
657
660
667
680
584
101
0
0
0
0
0
333
853
1022
1022
1022
1022
1022
1021
1003
982
991
995
1001
886
388
0
0
0
0
86
497
959
1022
1022
1022
1022
887
742
660
583
550
518
492
347
0
0
0
0
0
0
0
133
527
732
487
180
0
0
0
0
0
0
0
0
0
0
0
0
0
0
0
419
931
1022
1022
907
776
719
719
728
779
834
889
831
423
73
0
0
171
442
894
1022
1022
1022
1022
1022
1022
1022
1022
1022
1022
1022
1022
1022
664
244
3
0
125
332
719
1022
1022
1022
1022
1022
1022
968
895
820
784
755
737
598
118
0
0
0
0
0
241
707
1022
1022
1022
982
788
664
601
546
537
534
543
433
0
0
0
0
0
0
227
740
1022
1022
1022
1022
969
863
815
753
736
728
730
614
105
0
0
0
0
0
319
844
1022
1022
1022
1022
963
848
799
752
745
734
732
588
49
0
0
0
0
0
208
764
1022
1022
1022
1022
916
787
726
674
670
672
683
552
42
0
0
0
0
0
308
828
1022
1022
1022
1022
942
834
776
727
718
707
698
558
27
0
0
0
0
0
442
1008
1022
1023
1022
1022
1022
1022
1022
1022
1022
1022
1022
894
375
0
0
0
0
118
551
1003
1022
1022
1022
1022
827
669
566
467
417
373
336
160
0
0
0
0
0
0
0
0
408
562
255
0
0
0
0
0
0
0
0
0
0
0
0
0
0
0
0
463
988
1022
1022
940
809
738
722
717
760
807
868
803
396
67
0
0
263
551
1005
1022
1022
1022
1022
1022
1022
1022
1022
1022
1022
1022
1022
1022
664
225
0
0
99
313
721
1022
1022
1022
1022
1022
1022
1022
963
904
892
883
876
731
236
0
0
0
0
0
422
887
1022
1022
1022
1022
847
721
656
600
581
562
551
391
0
0
0
0
0
0
69
508
932
1022
916
669
513
432
398
370
400
425
448
303
0
0
0
0
0
0
318
892
1022
1022
1022
1022
1022
990
938
891
897
899
897
722
156
0
0
0
0
0
375
915
1022
1022
1022
1022
982
863
804
740
728
719
717
554
33
0
0
0
0
0
346
856
1022
1022
1022
1022
897
788
741
695
692
690
694
529
5
0
0
0
0
0
448
988
1022
1022
1022
1022
1022
1022
1000
977
997
1007
1019
862
352
0
0
0
0
144
583
1021
1022
1022
1022
1022
924
793
709
629
594
554
531
348
0
0
0
0
0
0
0
295
691
839
545
231
3
0
0
0
0
0
0
0
0
0
0
0
0
0
0
543
1022
1022
1022
993
880
835
845
858
904
952
998
880
425
52
0
0
124
392
853
1022
1022
1022
1022
1022
1022
1022
1022
1022
1022
1022
1022
871
364
0
0
0
0
168
604
1022
1022
1022
1022
1022
985
860
785
709
683
660
660
492
0
0
0
0
0
0
236
700
1022
1022
1022
876
704
604
549
496
488
484
488
319
0
0
0
0
0
0
240
783
1022
1022
1022
1022
901
818
782
759
790
816
839
672
135
0
0
0
0
0
391
918
1022
1022
1022
1022
956
840
796
748
749
748
752
563
13
0
0
0
0
0
441
977
1022
1022
1022
1022
935
803
730
664
657
652
653
470
0
0
0
0
0
0
282
807
1022
1022
1022
1022
859
767
745
724
752
786
826
681
192
0
0
0
0
279
774
1022
1022
1022
1022
1022
1022
1022
956
880
853
822
788
573
45
0
0
0
0
0
103
533
951
1022
854
586
394
268
164
49
0
0
0
0
0
0
0
0
0
0
0
0
351
609
449
283
190
177
210
237
289
334
376
254
0
0
0
0
0
14
517
1018
1022
1022
1022
1022
1022
1022
1022
1022
1022
1022
1023
1022
864
493
304
324
502
715
1022
1022
1022
1022
1022
1022
1022
1022
1022
1022
1022
1020
1007
807
298
0
0
0
0
113
551
1016
1022
1022
1022
1022
958
849
786
723
679
627
578
355
0
0
0
0
0
0
184
647
1022
1022
1020
769
601
508
464
413
396
385
388
217
0
0
0
0
0
0
319
839
1022
1023
1022
1022
944
862
835
809
831
856
872
673
144
0
0
0
0
71
560
1022
1022
1022
1022
1022
1021
908
851
794
773
754
742
530
4
0
0
0
0
0
356
860
1022
1022
1022
1021
843
752
707
671
682
702
731
561
83
0
0
0
0
219
713
1022
1022
1022
1022
1022
1022
984
903
830
795
756
722
499
0
0
0
0
0
0
182
614
1017
1022
890
613
399
247
139
20
0
0
0
0
0
0
0
0
0
0
0
0
280
492
325
174
95
83
124
168
256
343
422
302
0
0
0
0
0
80
566
1022
1022
1022
1022
1022
1022
1022
1022
1022
1022
1022
1022
1022
694
337
180
233
455
721
1022
1022
1022
1022
1022
1022
1022
1022
1022
1022
1022
1022
1022
907
396
0
0
0
0
258
691
1022
1022
1023
1022
1022
1022
966
910
857
841
826
815
597
81
0
0
0
0
0
429
923
1022
1022
1022
1019
797
664
589
516
490
469
438
193
0
0
0
0
0
0
0
380
888
1022
888
668
527
468
443
422
438
454
486
307
0
0
0
0
0
0
549
1022
1022
1023
1022
1022
1022
1021
981
940
936
929
921
684
140
0
0
0
0
57
529
1018
1022
1023
1022
1022
870
755
689
632
622
615
623
404
0
0
0
0
0
0
515
1022
1022
1022
1022
1022
1022
1022
1022
1021
998
971
957
726
206
0
0
0
0
88
520
966
1022
1022
1022
915
712
576
492
426
402
367
320
59
0
0
0
0
0
0
0
0
368
451
149
0
0
0
0
0
0
0
0
0
0
0
0
0
0
0
272
822
1022
1022
1022
1022
1022
1022
1016
977
975
983
998
811
361
35
0
21
284
604
1022
1022
1022
1022
1022
1022
1022
1022
1022
1022
1022
1022
1022
985
475
90
0
0
119
363
783
1022
1022
1022
1022
1022
1022
959
907
863
861
859
856
635
151
0
0
0
0
79
516
981
1022
1022
1022
1021
827
719
649
571
527
488
472
235
0
0
0
0
0
0
145
606
1013
1022
852
601
432
368
366
362
394
416
445
234
0
0
0
0
0
0
358
907
1022
1022
1022
1022
1021
937
906
872
876
877
879
641
124
0
0
0
0
129
594
1022
1023
1022
1022
1022
901
791
729
673
657
643
634
391
0
0
0
0
0
0
418
948
1022
1022
1022
1022
1022
1022
1005
977
980
979
965
717
214
0
0
0
0
154
592
1022
1022
1022
1022
1006
797
674
585
496
435
366
296
6
0
0
0
0
0
0
0
48
428
503
223
0
0
0
0
0
0
0
0
0
0
0
0
0
0
0
479
1014
1022
1023
1022
1022
1022
1003
944
888
875
883
904
710
273
0
0
0
248
559
1017
1022
1022
1022
1022
1022
1022
1022
1022
1022
1022
1022
1022
992
498
128
0
0
180
426
844
1022
1022
1022
1022
1022
1022
1022
1011
956
936
923
909
664
181
0
0
0
0
172
603
1022
1022
1022
1022
1022
928
824
764
705
687
671
655
407
0
0
0
0
0
0
355
818
1022
1022
1022
818
655
563
510
457
437
424
407
153
0
0
0
0
0
0
21
523
977
1022
791
512
312
215
208
256
332
397
451
242
0
0
0
0
0
63
599
1022
1022
1022
1022
1022
1022
986
916
847
821
804
794
517
0
0
0
0
0
0
449
976
1022
1022
1022
979
793
701
655
628
646
678
717
473
0
0
0
0
0
207
744
1022
1022
1022
1022
1022
1022
929
863
798
772
739
709
410
0
0
0
0
0
0
512
1022
1022
1022
1022
1022
983
894
857
838
854
886
912
654
134
0
0
0
0
299
809
1022
1022
1022
1022
1022
1022
1022
953
880
839
799
758
453
0
0
0
0
0
0
216
654
1020
1022
769
487
272
123
19
0
0
0
0
0
0
0
0
0
0
0
0
0
441
588
398
255
192
226
302
372
472
557
625
426
0
0
0
0
0
144
630
1022
1022
1022
1022
1022
1022
1022
1022
1022
1022
1022
1022
991
503
151
0
60
259
518
949
1022
1022
1022
1022
1022
1022
959
889
829
808
790
777
505
8
0
0
0
0
9
476
943
1022
1022
1022
952
795
720
690
664
676
677
671
405
0
0
0
0
0
0
481
969
1022
1022
1022
1022
908
839
803
770
768
763
751
471
0
0
0
0
0
0
464
951
1022
1022
1022
963
796
700
648
603
591
584
581
318
0
0
0
0
0
0
337
790
1022
1022
1020
776
616
519
460
407
380
351
323
46
0
0
0
0
0
0
47
513
933
1022
778
568
444
395
392
392
419
448
476
249
0
0
0
0
0
49
501
964
1022
1022
1022
1022
975
930
920
915
938
960
972
724
265
0
0
0
28
300
731
1022
1022
1022
1022
1022
1012
921
870
825
803
778
746
461
0
0
0
0
0
0
344
787
1022
1022
1022
801
647
557
501
462
455
450
444
189
0
0
0
0
0
0
338
816
1022
1022
1022
930
810
754
743
734
753
780
814
588
155
0
0
0
67
365
826
1022
1022
1022
1022
1022
1022
1022
1022
1022
1022
1022
1022
785
257
0
0
0
0
126
579
1022
1022
1022
1022
1021
823
717
656
604
592
588
572
257
0
0
0
0
0
0
350
889
1022
1022
1022
1022
886
819
791
783
802
807
796
478
0
0
0
0
0
41
583
1022
1022
1022
1022
1022
1022
1022
1022
1022
1022
1022
1022
899
278
0
0
0
0
7
586
1022
1022
1022
1022
1022
1022
1001
931
835
788
748
708
356
0
0
0
0
0
0
466
1020
1022
1022
1022
1022
867
776
734
697
699
702
706
382
0
0
0
0
0
0
553
1022
1022
1022
1022
1022
1022
1022
1000
972
974
974
962
627
57
0
0
0
0
24
517
1012
1022
1023
1022
892
696
574
498
440
424
423
418
126
0
0
0
0
0
0
216
696
1022
1022
892
659
492
388
317
239
176
119
63
0
0
0
0
0
0
0
0
441
905
1013
782
595
472
405
382
368
382
404
423
165
0
0
0
0
0
0
499
1007
1022
1022
1022
1022
999
935
904
872
871
867
858
568
84
0
0
0
0
163
610
1022
1022
1022
1022
1022
895
804
750
711
694
682
666
377
0
0
0
0
0
0
441
914
1022
1023
1022
888
739
667
635
605
606
611
611
337
0
0
0
0
0
35
510
996
1022
1023
1022
1012
855
782
746
712
713
716
720
430
0
0
0
0
0
84
559
1022
1022
1022
1022
1022
886
798
743
697
689
688
678
369
0
0
0
0
0
0
483
980
1022
1022
1022
972
817
740
700
670
671
668
661
344
0
0
0
0
0
0
393
921
1022
1022
1022
941
799
729
699
689
702
711
713
390
0
0
0
0
0
0
491
1015
1022
1022
1022
1022
897
825
792
775
799
830
861
584
101
0
0
0
71
419
929
1022
1022
1022
1022
1022
1022
1022
1022
998
957
915
880
555
37
0
0
0
0
0
434
868
1022
1022
901
606
377
208
64
0
0
0
0
0
0
0
0
0
0
0
0
0
366
528
378
261
211
240
304
363
441
509
562
328
0
0
0
0
0
199
663
1022
1022
1022
1022
1022
1022
1022
1022
1022
1022
1022
1022
1022
614
281
154
244
455
745
1022
1022
1022
1022
1022
1022
1022
1022
1022
1022
1022
1022
1022
757
263
0
0
0
37
326
764
1022
1022
1022
1022
1022
972
876
810
752
727
704
682
364
0
0
0
0
0
0
379
859
1022
1022
1022
820
664
595
560
533
545
554
550
234
0
0
0
0
0
0
473
986
1022
1022
1022
1022
899
838
806
774
774
781
786
480
0
0
0
0
0
72
555
1022
1022
1022
1022
1022
896
828
781
749
759
766
762
425
0
0
0
0
0
95
647
1022
1022
1022
1022
1022
1022
1022
992
959
940
918
903
550
0
0
0
0
0
82
589
1022
1022
1022
1022
1022
892
816
790
773
794
811
805
460
0
0
0
0
0
0
563
1022
1022
1022
1022
1022
1022
1022
1022
1020
1022
1022
1022
679
138
0
0
0
0
172
640
1022
1022
1022
1022
1014
819
711
644
584
544
511
472
124
0
0
0
0
0
0
0
409
787
766
416
94
0
0
0
0
0
0
0
0
0
0
0
0
0
0
0
537
1022
1022
994
826
732
702
705
716
749
781
808
531
84
0
0
0
135
484
993
1022
1022
1022
1022
1022
1022
1022
1022
1022
1022
1015
973
639
132
0
0
0
0
229
686
1022
1022
1022
1022
1022
931
844
790
752
743
738
731
417
0
0
0
0
0
36
507
985
1022
1022
1022
904
748
680
653
633
643
656
670
364
0
0
0
0
0
104
593
1022
1022
1023
1022
1022
890
822
800
784
789
790
783
446
0
0
0
0
0
41
545
1022
1022
1022
1022
1022
934
866
830
800
800
807
808
476
0
0
0
0
0
128
622
1022
1022
1022
1022
1022
897
811
760
724
719
711
702
375
0
0
0
0
0
57
545
1021
1022
1022
1022
1011
839
759
717
686
688
689
691
378
0
0
0
0
0
70
503
940
1022
1022
960
669
443
286
167
75
23
0
0
0
0
0
0
0
0
0
0
0
358
399
201
91
49
85
158
239
354
472
570
348
0
0
0
0
0
288
741
1022
1022
1022
1022
1022
859
770
735
736
775
828
888
653
247
0
0
30
268
582
1020
1022
1022
1022
1022
1022
1022
1022
1022
1022
1022
1022
1022
732
262
0
0
0
112
415
868
1022
1022
1022
1022
1022
1022
1022
1022
984
958
936
906
583
99
0
0
0
0
237
692
1022
1022
1022
1022
1022
914
818
751
703
683
660
632
298
0
0
0
0
0
0
316
781
1022
1022
911
665
496
409
351
295
277
268
261
0
0
0
0
0
0
0
283
832
1022
1022
1022
931
807
767
748
735
755
774
797
488
0
0
0
0
0
281
776
1022
1022
1022
1022
1022
1022
960
892
855
855
859
874
538
11
0
0
0
0
281
822
1022
1022
1022
1022
1022
1022
1022
1004
952
915
888
861
448
0
0
0
0
0
0
548
1022
1022
1022
1022
1022
967
896
861
838
833
821
797
403
0
0
0
0
0
83
645
1022
1022
1022
1022
1022
1022
1006
938
883
848
826
810
451
0
0
0
0
0
143
628
1022
1022
1022
1022
959
774
658
577
520
501
488
468
123
0
0
0
0
0
0
73
508
853
778
407
95
0
0
0
0
0
0
0
0
0
0
0
0
0
0
159
721
1022
1022
1011
784
640
564
528
527
572
629
682
414
14
0
0
0
150
492
970
1022
1022
1022
1022
1022
1022
1022
1022
998
991
988
979
649
172
0
0
0
0
308
765
1022
1022
1022
1022
1022
961
867
807
760
740
727
709
368
0
0
0
0
0
81
547
1019
1022
1022
1022
968
828
761
724
696
693
698
700
368
0
0
0
0
0
80
560
1022
1022
1022
1022
992
835
756
704
662
639
614
591
224
0
0
0
0
0
0
424
939
1022
1022
1022
908
757
674
624
594
601
614
612
263
0
0
0
0
0
0
430
955
1022
1022
1022
788
646
634
649
647
674
730
742
357
0
0
0
0
0
163
712
1022
1022
1022
1022
1022
1022
910
834
780
761
758
747
366
0
0
0
0
0
17
569
1022
1022
1023
1022
1022
932
861
823
792
786
784
779
413
0
0
0
0
0
332
869
1022
1022
1022
1022
1022
1022
1021
943
883
855
837
810
435
0
0
0
0
0
131
599
1022
1022
1022
1022
921
755
653
577
519
484
458
432
67
0
0
0
0
0
0
79
513
865
824
525
271
105
31
0
0
0
59
124
0
0
0
0
0
0
0
390
873
1022
1022
1022
836
739
735
762
807
874
941
995
720
277
0
0
0
165
469
910
1022
1022
1022
1022
1022
1022
1021
965
924
904
889
862
512
24
0
0
0
0
217
671
1022
1022
1022
1022
1022
902
814
759
720
711
705
684
343
0
0
0
0
0
111
598
1022
1022
1022
1022
1020
843
756
688
639
636
655
657
311
0
0
0
0
0
78
540
1011
1022
1022
1022
889
733
661
615
590
591
604
611
258
0
0
0
0
0
12
537
1022
1022
1022
1022
930
748
672
663
676
689
682
690
313
0
0
0
0
0
120
671
1022
1022
1022
1022
1022
942
835
770
725
712
705
683
284
0
0
0
0
0
26
562
1022
1022
1022
1022
1022
871
792
746
718
729
747
755
392
0
0
0
0
0
359
880
1022
1022
1022
1022
1022
1022
962
882
828
806
792
769
401
0
0
0
0
0
113
577
1022
1022
1022
1022
851
671
567
490
422
392
367
327
0
0
0
0
0
0
0
0
446
814
770
484
275
144
90
54
47
74
124
169
0
0
0
0
0
0
0
502
996
1022
1022
1022
948
803
736
699
702
744
795
840
551
141
0
0
0
254
587
1021
1022
1022
1022
1022
1022
1022
1001
936
896
884
878
859
511
37
0
0
0
0
256
713
1022
1022
1022
1022
1022
928
851
799
767
758
749
724
359
0
0
0
0
0
70
547
1020
1022
1022
1022
985
839
762
711
679
676
687
691
331
0
0
0
0
0
89
578
1022
1022
1022
1022
1013
836
749
699
669
659
657
641
255
0
0
0
0
0
0
525
1022
1022
1022
1022
965
811
737
724
727
732
733
724
338
0
0
0
0
0
123
649
1022
1022
1023
1022
1021
854
767
710
678
668
664
646
257
0
0
0
0
0
72
608
1022
1022
1022
1022
1022
991
944
917
904
911
919
903
521
20
0
0
0
0
228
699
1022
1022
1022
1022
1022
926
860
819
795
785
777
752
379
0
0
0
0
0
38
480
929
1022
1022
939
692
512
394
298
221
174
131
67
0
0
0
0
0
0
0
0
454
888
911
684
498
380
344
338
350
387
427
452
151
0
0
0
0
0
271
768
1022
1022
1022
1022
1022
1022
1022
1022
1022
1022
1022
1022
749
288
0
0
0
223
537
978
1022
1022
1022
1022
1022
1022
983
920
881
865
852
821
446
0
0
0
0
0
158
624
1022
1022
1022
1022
944
790
708
651
620
611
606
581
200
0
0
0
0
0
0
500
994
1022
1022
1022
828
697
641
614
606
623
630
611
225
0
0
0
0
0
109
596
1022
1022
1022
1022
953
800
724
675
649
646
646
630
232
0
0
0
0
0
7
578
1022
1022
1022
1022
1022
919
841
791
769
773
782
766
362
0
0
0
0
0
167
665
1022
1022
1022
1022
1021
873
808
766
745
757
773
777
401
0
0
0
0
0
287
773
1022
1022
1022
1022
1022
915
835
772
740
739
754
740
367
0
0
0
0
0
165
608
1022
1022
1022
1022
776
607
530
468
430
406
390
373
7
0
0
0
0
0
0
122
561
908
834
543
325
189
136
110
109
139
183
207
0
0
0
0
0
0
0
470
980
1022
1022
1022
933
810
768
760
777
808
846
865
539
121
0
0
0
236
593
1022
1022
1022
1022
1022
1022
1022
1022
1022
1022
1022
1022
1022
666
192
0
0
0
90
409
854
1022
1022
1022
1022
1022
961
886
828
792
776
764
727
338
0
0
0
0
0
50
518
992
1022
1022
1022
784
622
538
483
451
430
416
381
0
0
0
0
0
0
0
352
868
1022
1022
950
730
601
556
539
543
568
606
620
258
0
0
0
0
0
232
754
1022
1022
1022
1022
1022
1021
914
834
782
759
741
706
299
0
0
0
0
0
47
524
1012
1022
1022
1022
870
734
676
640
631
649
675
681
324
0
0
0
0
0
320
812
1022
1022
1022
1022
1022
1006
932
883
845
822
797
748
351
0
0
0
0
0
0
419
844
1022
1022
768
530
369
281
210
154
126
122
107
0
0
0
0
0
0
0
241
752
1022
1022
1020
884
831
839
843
863
881
886
865
506
46
0
0
0
0
148
524
924
1022
1022
901
712
613
600
613
647
693
740
772
475
79
0
0
0
210
553
1001
1022
1022
1023
1022
1022
1022
1022
1022
1022
1022
1022
1021
669
246
0
0
23
236
556
978
1022
1022
1022
1022
1022
1022
1002
942
902
880
862
825
459
21
0
0
0
0
281
713
1022
1022
1022
1022
956
806
723
659
618
594
574
532
148
0
0
0
0
0
0
336
773
1022
1022
779
560
415
339
287
256
238
232
208
0
0
0
0
0
0
0
179
653
1016
965
706
506
392
355
325
332
347
383
406
65
0
0
0
0
0
187
657
1022
1022
1022
1023
1022
993
941
913
899
898
893
858
423
0
0
0
0
0
171
687
1022
1022
1022
1022
979
843
813
804
814
834
871
889
475
0
0
0
0
0
376
915
1022
1022
1022
1022
1022
1022
1022
1002
994
994
1004
973
489
0
0
0
0
0
11
559
1022
1022
1022
1022
1004
839
766
716
689
682
682
659
211
0
0
0
0
0
80
641
1022
1023
1022
1022
1022
1021
951
905
884
879
871
831
381
0
0
0
0
0
198
725
1022
1022
1022
1022
969
806
721
649
600
569
545
497
79
0
0
0
0
0
0
480
945
1022
1022
903
668
506
423
369
345
348
351
347
0
0
0
0
0
0
0
509
1011
1022
1022
1022
889
763
708
674
660
655
652
614
225
0
0
0
0
0
86
545
1003
1022
1022
1022
824
686
616
565
540
537
551
544
187
0
0
0
0
0
117
572
1020
1022
1022
1022
860
731
668
630
615
615
619
598
223
0
0
0
0
0
149
607
1022
1022
1022
1022
956
831
774
727
702
695
693
665
282
0
0
0
0
0
144
601
1022
1022
1022
1022
892
760
697
653
636
640
645
619
241
0
0
0
0
0
131
592
1022
1023
1022
1022
870
740
677
633
615
617
621
591
196
0
0
0
0
0
86
568
1022
1022
1022
1022
900
762
697
649
624
615
612
582
167
0
0
0
0
0
130
622
1022
1022
1022
1022
938
803
748
704
668
661
676
651
199
0
0
0
0
0
109
717
1022
1023
1022
1022
1022
1022
963
919
910
938
978
984
550
25
0
0
0
44
457
988
1022
1022
1022
1023
1022
976
862
773
728
702
684
641
174
0
0
0
0
0
125
694
1022
1022
1022
1022
1022
945
905
872
864
881
903
882
435
0
0
0
0
0
259
764
1022
1022
1022
1022
1022
856
753
672
629
616
617
588
172
0
0
0
0
0
97
562
1019
1022
1022
973
743
583
492
424
385
351
323
267
0
0
0
0
0
0
0
348
859
1022
1022
940
741
615
559
514
497
502
516
502
121
0
0
0
0
0
148
629
1022
1022
1022
1022
942
823
771
736
728
737
752
730
344
0
0
0
0
0
301
754
1022
1022
1022
1022
979
845
783
737
722
722
729
698
310
0
0
0
0
0
247
706
1022
1022
1022
1022
947
815
746
700
678
675
674
638
236
0
0
0
0
0
146
608
1022
1022
1022
1022
873
741
673
624
602
598
603
571
167
0
0
0
0
0
111
588
1022
1022
1022
1022
919
785
707
642
609
585
577
547
145
0
0
0
0
0
124
611
1022
1022
1022
1022
829
675
582
499
445
408
384
320
0
0
0
0
0
0
0
341
874
1022
1022
857
633
502
467
460
489
523
572
579
150
0
0
0
0
0
339
904
1022
1022
1022
1022
1022
1022
1022
1020
1003
987
956
875
376
0
0
0
0
0
294
879
1022
1022
1022
1023
1022
1022
1022
1020
963
939
929
882
406
0
0
0
0
23
499
1022
1022
1022
1022
1022
1022
1022
1022
989
926
888
846
771
302
0
0
0
0
0
265
759
1022
1022
1022
1022
1004
846
767
704
669
656
651
605
189
0
0
0
0
0
89
535
975
1022
1022
968
784
658
595
552
540
540
547
523
149
0
0
0
0
0
296
753
1022
1023
1022
1022
1019
883
828
793
783
791
807
783
403
0
0
0
0
0
368
808
1022
1022
1022
1022
1007
861
787
726
696
678
668
620
220
0
0
0
0
0
158
593
1020
1022
1022
1020
816
692
634
595
591
598
608
575
186
0
0
0
0
0
166
609
1022
1022
1022
1022
824
696
627
567
537
520
517
480
87
0
0
0
0
0
116
590
1022
1022
1022
1022
824
699
644
598
569
557
561
527
124
0
0
0
0
0
123
600
1022
1022
1022
1022
883
746
670
619
600
595
585
526
57
0
0
0
0
0
0
363
888
1022
1022
809
612
548
532
483
466
480
499
441
0
0
0
0
0
0
0
536
1022
1022
1022
1022
975
860
818
782
790
819
861
840
344
0
0
0
0
0
156
688
1022
1022
1022
1022
999
858
808
786
810
846
887
864
399
0
0
0
0
0
324
867
1022
1022
1022
1023
1022
1022
1022
1022
1022
1022
1022
1022
747
227
0
0
0
198
592
1022
1022
1022
1022
1022
1022
990
906
842
817
809
807
754
296
0
0
0
0
0
218
683
1022
1022
1022
1022
809
656
565
490
449
420
416
370
0
0
0
0
0
0
0
470
941
1022
1022
934
743
616
562
527
521
534
559
532
141
0
0
0
0
0
213
678
1022
1022
1022
1022
920
799
737
681
653
639
636
583
170
0
0
0
0
0
264
722
1022
1022
1022
1022
950
833
775
724
701
687
677
619
208
0
0
0
0
0
186
625
1022
1022
1022
987
791
670
613
560
540
530
529
480
75
0
0
0
0
0
95
540
992
1022
1022
950
755
627
564
516
502
499
505
458
47
0
0
0
0
0
105
571
1021
1022
1022
1021
839
734
693
647
622
607
599
541
111
0
0
0
0
0
148
624
1022
1022
1022
1022
827
700
638
578
552
546
545
486
6
0
0
0
0
0
0
319
803
1022
1022
915
700
582
555
508
488
454
432
357
0
0
0
0
0
0
0
620
1022
1022
1022
1022
1022
915
900
914
972
1022
1022
1022
576
17
0
0
0
0
374
910
1022
1023
1022
1022
1022
1022
960
914
931
976
1020
998
492
0
0
0
0
0
433
998
1022
1022
1022
1022
1022
967
892
836
816
811
795
726
196
0
0
0
0
0
225
817
1022
1023
1022
1023
1022
925
849
797
784
774
769
703
178
0
0
0
0
0
209
790
1022
1023
1022
1022
1022
867
786
720
699
689
692
623
98
0
0
0
0
0
162
736
1022
1023
1022
1022
1021
874
814
762
756
759
766
699
171
0
0
0
0
0
182
747
1022
1022
1022
1022
1022
910
850
796
777
768
768
698
189
0
0
0
0
0
204
735
1022
1022
1022
1022
951
802
733
681
676
702
728
671
197
0
0
0
0
0
315
832
1022
1022
1022
1023
1004
840
758
689
662
647
626
527
33
0
0
0
0
0
85
572
1022
1022
1022
1022
852
753
719
690
693
701
702
651
229
0
0
0
0
0
379
851
1022
1023
1022
1022
1022
888
809
738
702
683
671
596
152
0
0
0
0
0
125
547
985
1023
1022
912
738
631
588
546
534
536
551
507
93
0
0
0
0
0
222
688
1022
1022
1022
1022
881
762
701
645
628
621
622
558
135
0
0
0
0
0
221
677
1022
1023
1022
1022
846
725
668
619
608
604
609
544
115
0
0
0
0
0
227
689
1022
1022
1022
1022
875
757
700
649
636
631
638
571
137
0
0
0
0
0
257
733
1022
1023
1022
1022
928
804
743
689
674
667
668
596
141
0
0
0
0
0
207
685
1022
1022
1022
1022
868
741
679
620
597
580
569
493
23
0
0
0
0
0
160
674
1022
1022
1022
1022
915
801
750
708
703
708
719
645
161
0
0
0
0
0
248
768
1022
1023
1022
1022
1022
920
874
837
836
840
847
779
314
0
0
0
0
66
498
992
1022
1022
1022
1022
1022
1022
945
878
849
826
806
713
261
0
0
0
0
0
340
780
1022
1022
1022
1022
824
676
583
491
434
383
349
255
0
0
0
0
0
0
0
447
941
1022
1022
916
750
647
602
543
506
470
440
328
0
0
0
0
0
0
0
419
898
1022
1022
810
632
524
474
434
430
437
453
393
0
0
0
0
0
0
224
713
1022
1023
1022
1022
953
845
796
748
735
728
727
651
202
0
0
0
0
0
329
792
1022
1023
1022
1022
917
795
734
680
662
653
655
575
126
0
0
0
0
0
216
684
1022
1023
1022
1022
839
723
668
611
595
590
591
510
50
0
0
0
0
0
195
679
1022
1023
1022
1022
850
741
697
658
656
656
659
575
99
0
0
0
0
0
213
710
1022
1023
1022
1022
831
699
638
582
568
564
569
480
0
0
0
0
0
0
198
786
1022
1022
1022
1022
1022
882
819
757
747
752
769
681
136
0
0
0
0
0
329
910
1022
1023
1022
1022
1022
1021
991
971
998
1010
1020
948
421
0
0
0
0
0
366
903
1022
1023
1022
1022
958
780
694
639
636
646
675
595
76
0
0
0
0
0
318
890
1022
1022
1022
1022
1022
914
850
793
797
804
812
702
146
0
0
0
0
0
320
891
1022
1022
1022
1023
1022
1022
1022
979
987
996
1008
910
374
0
0
0
0
0
396
898
1022
1022
1022
1022
948
824
769
721
719
723
725
611
93
0
0
0
0
0
190
664
1022
1023
1022
945
732
598
531
477
457
443
427
311
0
0
0
0
0
0
63
574
1022
1023
1022
950
760
650
607
567
572
590
612
514
40
0
0
0
0
0
245
722
1022
1022
1022
1022
847
727
664
607
593
583
577
476
4
0
0
0
0
0
152
624
1022
1023
1022
924
746
639
590
552
551
559
576
490
40
0
0
0
0
0
309
790
1022
1022
1022
1022
926
815
761
706
688
680
677
571
105
0
0
0
0
0
307
787
1022
1022
1022
1022
896
782
728
668
652
640
639
536
67
0
0
0
0
0
253
733
1022
1023
1022
1022
855
746
702
656
651
648
653
551
71
0
0
0
0
0
271
764
1022
1023
1022
1022
878
761
705
652
650
649
655
542
39
0
0
0
0
0
227
740
1022
1023
1022
1022
879
758
709
664
702
748
785
672
139
0
0
0
0
0
362
912
1022
1022
1022
1022
1022
911
860
815
823
845
869
745
181
0
0
0
0
0
549
1022
1022
1022
1022
1022
1022
1022
1022
1022
995
960
933
759
165
0
0
0
0
0
295
872
1022
1022
1022
1022
939
803
739
681
679
677
684
548
0
0
0
0
0
0
263
843
1022
1022
1022
1022
1022
920
884
839
835
827
830
693
145
0
0
0
0
0
462
1008
1022
1023
1022
1022
1011
833
737
642
601
572
561
422
0
0
0
0
0
0
289
805
1022
1022
1022
1022
860
727
659
582
546
521
496
346
0
0
0
0
0
0
124
624
1022
1022
1022
920
727
613
567
535
557
577
595
478
0
0
0
0
0
0
263
758
1022
1022
1022
1021
824
705
642
583
576
574
582
459
0
0
0
0
0
0
269
756
1022
1022
1022
975
783
667
614
564
559
556
563
438
0
0
0
0
0
0
248
743
1022
1022
1022
1021
830
727
681
639
642
645
653
528
44
0
0
0
0
0
318
810
1022
1022
1022
1022
881
769
721
670
667
666
666
528
28
0
0
0
0
0
307
806
1022
1022
1022
1022
891
776
728
676
674
669
676
540
33
0
0
0
0
0
302
809
1022
1022
1022
1022
890
784
742
692
685
678
676
529
7
0
0
0
0
0
254
778
1022
1022
1022
1022
884
779
730
686
693
697
719
593
67
0
0
0
0
0
464
1020
1022
1023
1022
1023
1022
1021
977
933
937
952
980
848
316
0
0
0
0
252
757
1022
1022
1023
1022
1022
1022
1022
1022
946
931
916
898
703
95
0
0
0
0
0
396
953
1022
1023
1022
1023
960
808
737
660
639
615
598
412
0
0
0
0
0
0
144
726
1022
1023
1022
1022
815
696
645
595
603
603
615
464
0
0
0
0
0
0
262
864
1022
1023
1022
1022
984
860
811
755
735
725
724
527
0
0
0
0
0
0
223
821
1022
1022
1022
1022
846
716
666
611
608
603
604
414
0
0
0
0
0
0
162
769
1022
1022
1022
1022
844
722
675
614
611
612
616
425
0
0
0
0
0
0
191
799
1022
1022
1022
1022
858
739
691
639
637
640
652
475
0
0
0
0
0
0
245
862
1022
1023
1022
1022
933
805
753
695
695
699
710
523
0
0
0
0
0
0
289
911
1022
1022
1022
1022
986
860
808
753
754
756
765
574
0
0
0
0
0
0
329
945
1022
1022
1022
1023
1019
875
812
755
754
754
762
567
0
0
0
0
0
0
329
947
1022
1022
1022
1022
992
854
796
740
740
739
748
551
0
0
0
0
0
0
330
953
1022
1023
1022
1022
1022
896
848
795
793
791
797
593
0
0
0
0
0
0
354
975
1022
1022
1022
1022
1022
896
839
781
778
778
785
574
0
0
0
0
0
0
348
967
1022
1023
1022
1022
1014
866
806
748
748
746
754
547
0
0
0
0
0
0
319
946
1022
1022
1022
1022
1020
893
851
813
831
846
864
661
47
0
0
0
0
0
431
1015
1022
1022
1022
1022
1021
868
800
723
710
694
692
487
0
0
0
0
0
0
341
938
1022
1022
1022
1022
1022
982
942
900
905
908
902
687
92
0
0
0
0
0
132
630
1022
1022
1022
793
618
537
520
510
544
579
611
431
0
0
0
0
0
0
307
824
1022
1022
1022
1021
833
726
668
619
625
636
655
480
0
0
0
0
0
0
305
804
1022
1022
1022
930
727
611
553
505
497
474
445
229
0
0
0
0
0
0
179
734
1022
1023
1022
1022
884
796
761
721
720
719
722
532
34
0
0
0
0
0
452
941
1022
1022
1022
1022
920
813
752
682
660
652
660
482
0
0
0
0
0
0
393
888
1022
1022
1022
1022
927
831
785
740
734
725
720
530
23
0
0
0
0
0
438
936
1022
1022
1022
1022
911
810
761
721
721
721
728
540
33
0
0
0
0
0
439
936
1022
1023
1022
1022
900
798
749
699
696
690
692
492
0
0
0
0
0
0
403
916
1022
1022
1022
1022
898
794
749
700
700
698
707
504
0
0
0
0
0
0
408
937
1022
1022
1022
1022
916
813
771
734
740
741
751
550
11
0
0
0
0
0
473
1009
1022
1022
1022
1022
1022
923
887
852
856
860
869
662
128
0
0
0
0
105
600
1022
1022
1022
1022
1022
1022
909
847
784
757
734
721
504
0
0
0
0
0
0
429
912
1022
1022
1022
1022
834
719
650
583
545
513
486
267
0
0
0
0
0
0
207
708
1022
1022
1022
900
748
663
624
577
565
553
551
343
0
0
0
0
0
0
276
761
1022
1023
1022
886
724
640
609
578
584
592
600
404
0
0
0
0
0
0
394
878
1022
1022
1022
1004
816
711
653
601
590
583
587
390
0
0
0
0
0
0
435
926
1022
1022
1022
1022
887
793
750
704
697
687
684
465
0
0
0
0
0
0
366
840
1022
1022
1022
960
798
712
673
632
632
633
636
429
0
0
0
0
0
0
426
924
1022
1022
1022
1022
867
775
730
686
687
688
689
470
0
0
0
0
0
0
401
896
1022
1022
1022
985
804
704
653
615
623
631
643
426
0
0
0
0
0
0
372
911
1023
1023
1022
1022
921
828
799
777
791
801
827
599
38
0
0
0
0
0
540
1022
1022
1022
1022
1022
1022
986
989
992
1021
1022
1022
880
320
0
0
0
38
347
876
1022
1022
1023
1022
1022
1022
1022
1022
967
948
940
934
648
22
0
0
0
0
0
420
998
1022
1022
1022
1022
851
731
664
619
622
616
612
332
0
0
0
0
0
0
329
922
1022
1022
1022
1022
869
759
716
679
688
700
717
455
0
0
0
0
0
0
386
970
1022
1022
1022
1022
1011
919
885
852
856
843
817
502
0
0
0
0
0
0
316
852
1022
1022
1022
916
752
678
657
643
665
681
688
431
0
0
0
0
0
0
337
862
1022
1022
1022
899
710
600
542
496
491
487
487
235
0
0
0
0
0
0
195
699
1022
1022
1022
779
617
530
487
442
433
417
424
187
0
0
0
0
0
0
288
797
1022
1022
1022
901
740
646
585
525
502
486
479
238
0
0
0
0
0
0
401
906
1022
1022
1022
1022
866
777
741
705
705
705
708
476
0
0
0
0
0
10
494
979
1022
1022
1022
1022
858
763
708
654
646
638
640
399
0
0
0
0
0
0
411
896
1022
1022
1022
971
809
721
672
628
627
625
628
379
0
0
0
0
0
0
463
959
1022
1022
1022
1022
884
797
754
716
718
719
726
482
0
0
0
0
0
5
494
983
1022
1022
1022
1022
873
785
740
701
700
700
704
451
0
0
0
0
0
0
467
963
1022
1022
1022
1022
858
766
719
680
678
678
680
418
0
0
0
0
0
0
439
966
1022
1022
1022
1022
876
782
736
689
681
679
680
397
0
0
0
0
0
0
543
1022
1022
1022
1022
1022
1020
909
857
817
820
823
844
564
1
0
0
0
0
123
683
1022
1022
1022
1022
1022
1022
1022
1017
928
884
843
810
484
0
0
0
0
0
0
463
1021
1022
1022
1022
1022
955
856
797
751
751
762
777
488
0
0
0
0
0
13
583
1022
1022
1022
1022
1022
967
843
764
707
681
655
626
309
0
0
0
0
0
0
390
931
1022
1022
1022
1022
864
773
721
678
666
656
645
356
0
0
0
0
0
0
383
868
1022
1022
1022
864
698
607
562
522
523
525
525
259
0
0
0
0
0
0
406
911
1022
1022
1022
950
784
694
648
616
616
617
621
352
0
0
0
0
0
0
461
937
1022
1022
1022
969
807
716
666
626
626
633
644
380
0
0
0
0
0
0
463
947
1022
1022
1022
983
825
737
687
648
646
639
645
372
0
0
0
0
0
0
454
943
1022
1022
1022
957
795
706
660
625
625
627
632
359
0
0
0
0
0
0
475
974
1022
1022
1022
1012
839
751
705
667
663
662
663
380
0
0
0
0
0
0
458
963
1022
1022
1022
1003
836
747
699
658
656
652
655
362
0
0
0
0
0
0
444
965
1022
1022
1022
998
833
754
711
684
691
697
705
400
0
0
0
0
0
0
548
1022
1022
1022
1022
1022
1017
912
866
830
824
825
824
491
0
0
0
0
0
0
592
1022
1022
1022
1022
1022
1022
1022
1022
1022
1022
1022
1022
849
248
0
0
0
0
180
691
1022
1022
1022
1022
1022
946
851
830
815
833
833
844
503
0
0
0
0
0
0
449
1013
1022
1022
1022
952
768
675
622
585
585
592
600
255
0
0
0
0
0
0
411
1005
1022
1022
1022
1022
838
738
686
642
648
647
647
287
0
0
0
0
0
0
380
983
1022
1022
1022
1018
817
723
672
641
647
655
659
300
0
0
0
0
0
0
398
991
1022
1022
1022
1019
816
720
669
628
630
629
627
270
0
0
0
0
0
0
395
995
1022
1022
1022
1020
814
718
665
626
627
631
632
273
0
0
0
0
0
0
410
1008
1022
1022
1022
1021
826
726
675
636
639
644
648
290
0
0
0
0
0
0
453
1022
1023
1022
1022
1022
892
794
738
706
710
714
717
352
0
0
0
0
0
0
499
1022
1022
1022
1022
1022
931
831
777
736
737
739
743
374
0
0
0
0
0
0
505
1022
1022
1022
1022
1022
915
812
756
716
719
720
721
349
0
0
0
0
0
0
487
1022
1022
1022
1022
1022
908
817
768
726
726
732
737
364
0
0
0
0
0
0
531
1022
1022
1022
1022
1022
940
856
806
774
780
787
787
405
0
0
0
0
0
0
544
1022
1022
1022
1022
1022
922
833
783
745
752
763
768
391
0
0
0
0
0
0
551
1022
1023
1022
1022
1022
923
819
759
721
717
720
722
337
0
0
0
0
0
0
504
1022
1022
1022
1022
1022
908
799
729
683
678
671
666
271
0
0
0
0
0
0
428
1022
1022
1022
1022
1022
843
738
682
648
650
655
656
262
0
0
0
0
0
0
444
1022
1022
1022
1022
1022
859
761
710
670
672
679
677
283
0
0
0
0
0
0
460
1022
1022
1022
1022
1022
881
783
732
699
703
707
708
316
0
0
0
0
0
0
499
1022
1022
1022
1022
1022
902
807
756
722
725
731
732
339
0
0
0
0
0
0
553
1022
1022
1022
1022
1022
961
865
809
773
774
775
773
378
0
0
0
0
0
0
569
1022
1022
1022
1022
1022
969
867
814
775
776
782
776
376
0
0
0
0
0
0
577
1022
1022
1022
1022
1022
961
863
809
769
770
773
767
364
0
0
0
0
0
0
567
1022
1022
1022
1022
1022
947
848
795
756
757
759
753
350
0
0
0
0
0
0
544
1022
1022
1022
1022
1022
927
832
779
742
743
749
747
337
0
0
0
0
0
0
536
1022
1022
1022
1022
1022
918
817
763
730
735
737
735
327
0
0
0
0
0
0
541
1022
1023
1022
1022
1022
922
820
761
723
726
730
726
316
0
0
0
0
0
0
531
1022
1022
1022
1022
1022
904
804
746
710
714
721
717
303
0
0
0
0
0
0
514
1022
1022
1022
1022
1022
896
800
744
705
706
711
708
293
0
0
0
0
0
0
515
1022
1022
1022
1022
1022
887
787
731
694
698
705
702
286
0
0
0
0
0
0
515
1022
1023
1022
1022
1022
893
797
741
711
712
719
719
304
0
0
0
0
0
0
526
1022
1022
1022
1022
1022
908
811
753
718
720
727
721
300
0
0
0
0
0
0
532
1022
1022
1022
1022
1022
910
821
770
734
737
743
741
320
0
0
0
0
0
0
543
1022
1022
1022
1022
1022
920
824
766
733
733
739
737
318
0
0
0
0
0
0
557
1022
1022
1022
1022
1022
923
825
770
734
738
742
739
318
0
0
0
0
0
0
552
1022
1022
1022
1022
1022
924
831
777
743
745
746
743
318
0
0
0
0
0
0
569
1022
1022
1022
1022
1022
930
829
775
740
743
749
743
316
0
0
0
0
0
0
560
1022
1022
1022
1022
1022
929
832
782
747
745
751
745
320
0
0
0
0
0
0
561
1022
1022
1022
1022
1022
928
832
776
741
743
748
740
313
0
0
0
0
0
0
568
1022
1022
1022
1022
1022
930
833
774
740
741
747
738
309
0
0
0
0
0
0
545
1022
1022
1022
1022
1022
916
818
761
728
731
741
734
304
0
0
0
0
0
0
550
1022
1022
1022
1022
1022
909
810
754
719
722
728
720
287
0
0
0
0
0
0
532
1022
1022
1022
1022
1022
900
806
748
715
720
728
724
293
0
0
0
0
0
0
543
1022
1022
1022
1022
1022
902
807
749
715
715
721
713
283
0
0
0
0
0
0
542
1022
1023
1022
1022
1022
903
804
748
714
718
726
722
293
0
0
0
0
0
0
544
1022
1022
1022
1022
1022
903
807
753
720
726
733
726
293
0
0
0
0
0
0
549
1022
1022
1022
1022
1022
917
823
763
737
739
745
736
309
0
0
0
0
0
0
562
1022
1022
1022
1022
1022
929
836
777
750
750
752
746
312
0
0
0
0
0
0
555
1022
1022
1022
1022
1022
938
849
798
767
768
770
762
332
0
0
0
0
0
0
576
1022
1022
1022
1022
1022
932
835
782
744
745
748
739
308
0
0
0
0
0
0
532
1022
1022
1022
1022
1022
902
811
760
728
728
732
721
302
0
0
0
0
0
0
507
1022
1022
1022
1022
1022
889
793
736
703
702
707
697
295
0
0
0
0
0
0
495
1022
1022
1022
1022
1022
921
830
772
743
744
752
744
350
0
0
0
0
0
0
483
1022
1022
1022
1022
1022
903
805
746
713
711
717
708
323
0
0
0
0
0
0
459
1021
1022
1022
1022
1022
898
806
755
721
718
721
716
335
0
0
0
0
0
0
463
1021
1022
1022
1022
1022
910
819
759
726
723
726
718
335
0
0
0
0
0
0
447
1019
1022
1022
1022
1022
893
798
744
707
707
714
704
327
0
0
0
0
0
0
447
1019
1022
1022
1022
1022
911
821
763
728
726
727
719
343
0
0
0
0
0
0
432
1005
1022
1022
1022
1022
908
817
760
726
726
729
723
355
0
0
0
0
0
0
443
1008
1022
1022
1022
1022
901
808
748
712
709
710
695
322
0
0
0
0
0
0
456
1019
1022
1022
1022
1022
907
822
769
736
732
734
726
337
0
0
0
0
0
0
479
1022
1022
1022
1022
1022
909
818
762
728
726
731
723
336
0
0
0
0
0
0
483
1022
1023
1022
1022
1022
904
813
756
725
724
724
714
324
0
0
0
0
0
0
490
1022
1022
1022
1022
1022
909
815
763
727
729
732
721
327
0
0
0
0
0
0
492
1022
1022
1022
1022
1022
908
817
761
728
728
732
718
315
0
0
0
0
0
0
492
1022
1022
1022
1022
1022
905
814
758
726
723
725
715
308
0
0
0
0
0
0
495
1022
1022
1022
1022
1022
906
814
753
723
723
728
716
315
0
0
0
0
0
0
487
1022
1022
1022
1022
1022
892
803
753
723
720
724
716
316
0
0
0
0
0
0
494
1022
1022
1022
1022
1022
908
814
756
719
719
723
711
326
0
0
0
0
0
0
440
994
1022
1022
1022
1022
908
821
761
732
730
730
720
380
0
0
0
0
0
0
415
945
1022
1022
1022
1022
899
818
768
739
734
739
728
367
0
0
0
0
0
0
454
1009
1022
1022
1022
1022
900
814
760
732
734
736
726
345
0
0
0
0
0
0
496
1022
1022
1022
1022
1022
905
819
763
729
728
730
720
335
0
0
0
0
0
0
469
1021
1022
1022
1022
1022
896
815
766
735
733
733
721
333
0
0
0
0
0
0
501
1022
1022
1022
1022
1022
914
827
772
742
742
745
733
344
0
0
0
0
0
0
492
1022
1022
1022
1022
1022
907
826
773
743
740
741
727
336
0
0
0
0
0
0
500
1022
1022
1022
1022
1022
910
822
769
734
735
741
729
333
0
0
0
0
0
0
499
1022
1022
1022
1022
1022
908
823
764
737
734
741
729
330
0
0
0
0
0
0
499
1022
1023
1022
1022
1022
904
824
772
737
739
744
735
334
0
0
0
0
0
0
509
1022
1022
1022
1022
1022
913
824
770
736
737
741
729
331
0
0
0
0
0
0
510
1022
1022
1022
1022
1022
910
827
773
741
738
743
728
327
0
0
0
0
0
0
512
1022
1022
1022
1022
1022
913
826
774
740
740
742
728
322
0
0
0
0
0
0
515
1022
1022
1022
1022
1022
906
822
768
738
732
736
726
322
0
0
0
0
0
0
517
1022
1022
1022
1022
1022
911
825
774
738
737
739
723
322
0
0
0
0
0
0
518
1022
1022
1022
1022
1022
914
828
774
740
740
743
728
323
0
0
0
0
0
0
519
1022
1022
1022
1022
1022
910
819
768
737
735
735
723
314
0
0
0
0
0
0
520
1022
1022
1022
1022
1022
909
819
761
731
731
737
724
315
0
0
0
0
0
0
522
1022
1022
1022
1022
1022
906
819
764
737
736
743
732
319
0
0
0
0
0
0
524
1022
1022
1022
1022
1022
912
826
770
738
737
737
722
316
0
0
0
0
0
0
515
1022
1022
1022
1022
1022
918
829
774
743
738
741
725
323
0
0
0
0
0
0
496
1022
1022
1022
1022
1022
909
823
769
742
739
740
726
326
0
0
0
0
0
0
493
1022
1022
1022
1022
1022
912
828
774
741
738
743
730
341
0
0
0
0
0
0
488
1022
1022
1022
1022
1022
921
833
776
744
739
743
731
354
0
0
0
0
0
0
471
1018
1022
1022
1022
1022
925
835
775
744
734
734
722
337
0
0
0
0
0
0
478
1021
1022
1022
1022
1022
912
824
764
725
722
724
709
319
0
0
0
0
0
0
462
1019
1022
1022
1022
1022
899
817
762
732
728
727
710
315
0
0
0
0
0
0
475
1022
1022
1022
1022
1022
892
808
753
722
721
723
708
313
0
0
0
0
0
0
482
1022
1022
1022
1022
1022
899
821
765
737
734
738
725
328
0
0
0
0
0
0
468
1020
1023
1022
1022
1022
892
812
760
731
730
736
726
324
0
0
0
0
0
0
494
1022
1022
1022
1022
1022
908
820
769
747
750
752
736
326
0
0
0
0
0
0
506
1022
1022
1022
1022
1022
894
813
760
729
729
737
720
310
0
0
0
0
0
0
499
1022
1022
1022
1022
1022
893
810
755
726
726
732
712
291
0
0
0
0
0
0
511
1022
1022
1022
1022
1022
904
817
763
731
727
734
721
299
0
0
0
0
0
0
500
1022
1022
1022
1022
1022
893
809
753
719
722
728
713
289
0
0
0
0
0
0
526
1022
1022
1022
1022
1022
905
818
759
725
722
728
710
286
0
0
0
0
0
0
521
1022
1022
1022
1022
1022
910
826
769
737
736
738
715
275
0
0
0
0
0
0
533
1022
1022
1022
1022
1022
909
824
769
741
739
746
728
284
0
0
0
0
0
0
531
1022
1022
1022
1022
1022
899
810
753
723
726
734
719
273
0
0
0
0
0
0
540
1022
1022
1022
1022
1022
903
816
759
727
725
731
711
263
0
0
0
0
0
0
534
1022
1022
1023
1022
1022
898
814
759
732
734
736
719
267
0
0
0
0
0
0
548
1022
1022
1022
1022
1022
907
815
758
729
726
731
712
259
0
0
0
0
0
0
541
1022
1022
1022
1022
1022
903
824
771
739
739
742
721
268
0
0
0
0
0
0
540
1022
1022
1023
1022
1022
900
827
772
738
742
745
726
279
0
0
0
0
0
0
533
1022
1022
1022
1022
1022
899
819
768
742
740
744
722
278
0
0
0
0
0
0
535
1022
1022
1022
1022
1022
898
821
769
743
743
750
732
283
0
0
0
0
0
0
552
1022
1022
1022
1022
1022
900
816
760
735
737
743
721
270
0
0
0
0
0
0
551
1022
1022
1022
1022
1022
905
821
766
735
735
742
723
271
0
0
0
0
0
0
548
1022
1022
1022
1022
1022
900
813
760
733
735
737
717
268
0
0
0
0
0
0
554
1022
1022
1022
1022
1022
907
819
766
737
734
738
714
271
0
0
0
0
0
0
547
1022
1022
1022
1022
1022
907
827
770
742
739
745
728
281
0
0
0
0
0
0
551
1022
1022
1022
1022
1022
906
822
764
736
736
738
718
271
0
0
0
0
0
0
552
1022
1022
1022
1022
1022
901
816
760
733
734
737
716
267
0
0
0
0
0
0
551
1022
1023
1023
1022
1022
905
819
763
734
734
741
719
268
0
0
0
0
0
0
556
1022
1022
1022
1022
1022
904
819
765
738
738
745
719
273
0
0
0
0
0
0
551
1022
1022
1022
1022
1022
906
820
764
737
736
747
723
272
0
0
0
0
0
0
558
1022
1023
1022
1022
1022
907
827
771
748
746
748
723
267
0
0
0
0
0
0
558
1022
1022
1023
1022
1022
911
825
770
739
739
743
718
262
0
0
0
0
0
0
573
1022
1022
1023
1022
1022
904
827
774
743
746
753
727
268
0
0
0
0
0
0
568
1022
1022
1023
1022
1022
910
835
775
753
751
752
722
262
0
0
0
0
0
0
561
1022
1022
1022
1022
1022
894
815
760
728
729
734
707
247
0
0
0
0
0
0
561
1022
1022
1022
1022
1022
900
822
768
740
735
739
712
246
0
0
0
0
0
0
571
1022
1023
1022
1022
1022
900
818
760
737
738
743
715
253
0
0
0
0
0
0
567
1022
1022
1022
1022
1022
896
825
772
743
739
739
709
243
0
0
0
0
0
0
575
1022
1022
1023
1022
1022
902
832
776
745
739
745
717
249
0
0
0
0
0
0
573
1022
1022
1022
1022
1022
892
826
770
739
738
742
711
236
0
0
0
0
0
0
579
1022
1022
1023
1022
1022
894
818
764
737
736
741
710
238
0
0
0
0
0
0
577
1022
1022
1022
1022
1022
889
812
756
728
729
736
707
237
0
0
0
0
0
0
588
1022
1022
1022
1022
1022
899
823
764
738
739
743
716
236
0
0
0
0
0
0
590
1022
1022
1022
1022
1022
903
825
772
748
745
748
718
240
0
0
0
0
0
0
588
1022
1022
1022
1022
1022
901
821
764
738
739
741
711
235
0
0
0
0
0
0
586
1022
1022
1022
1022
1022
893
819
762
738
736
740
707
226
0
0
0
0
0
0
596
1022
1022
1023
1022
1022
896
819
763
736
735
739
707
225
0
0
0
0
0
0
597
1022
1023
1022
1022
1022
896
820
764
740
740
745
714
228
0
0
0
0
0
0
593
1022
1022
1022
1022
1022
887
815
760
734
733
739
707
219
0
0
0
0
0
0
591
1022
1022
1022
1022
1022
894
812
754
731
732
737
704
220
0
0
0
0
0
0
593
1022
1022
1022
1022
1022
896
815
758
736
735
742
708
222
0
0
0
0
0
0
598
1022
1023
1022
1022
1022
890
807
749
727
726
732
698
217
0
0
0
0
0
0
602
1022
1022
1022
1022
1022
896
819
762
737
736
743
706
221
0
0
0
0
0
0
603
1022
1022
1022
1022
1022
899
822
767
742
743
750
714
225
0
0
0
0
0
0
593
1022
1023
1023
1022
1022
888
804
752
729
728
738
707
220
0
0
0
0
0
2
617
1022
1023
1023
1022
1022
903
819
760
736
735
740
703
214
0
0
0
0
0
0
601
1022
1022
1023
1022
1022
893
814
754
732
733
738
700
219
0
0
0
0
0
0
601
1022
1022
1022
1022
1022
886
814
758
736
738
747
711
222
0
0
0
0
0
0
600
1022
1022
1022
1022
1022
896
814
758
735
730
736
703
219
0
0
0
0
0
0
594
1022
1022
1022
1022
1022
892
815
759
736
736
743
705
233
0
0
0
0
0
0
591
1022
1022
1022
1022
1022
903
821
764
740
737
738
701
251
0
0
0
0
0
0
544
1022
1022
1022
1022
1022
888
811
755
734
728
733
702
318
0
0
0
0
0
0
412
854
1022
1022
1022
966
850
761
686
611
553
499
491
764
1022
1022
1022
1022
974
675
274
0
0
0
0
0
100
161
215
229
234
233
279
745
1022
1022
1022
1022
1023
932
395
0
0
0
0
0
102
169
222
237
241
239
283
772
1022
1022
1022
1022
1022
972
408
0
0
0
0
0
116
185
237
252
260
260
308
808
1022
1022
1022
1022
1023
958
380
0
0
0
0
0
60
125
179
195
197
190
236
743
1022
1022
1022
1023
1023
908
324
0
0
0
0
0
66
140
202
224
231
231
280
807
1022
1022
1022
1022
1023
1019
399
0
0
0
0
0
88
159
214
236
239
233
276
804
1022
1022
1022
1022
1023
961
355
0
0
0
0
0
108
196
266
291
306
312
372
924
1022
1022
1022
1022
1023
1022
461
0
0
0
0
0
114
176
228
236
238
228
278
817
1022
1022
1022
1022
1023
918
292
0
0
0
0
0
0
72
140
170
192
203
270
837
1022
1022
1022
1023
1022
1022
409
0
0
0
0
0
137
214
275
294
293
286
334
886
1022
1022
1022
1022
1023
977
337
0
0
0
0
0
18
93
162
190
202
204
271
839
1022
1022
1022
1023
1022
1021
383
0
0
0
0
0
118
192
254
275
277
273
332
895
1022
1022
1022
1022
1023
1021
368
0
0
0
0
0
77
160
230
258
271
275
339
912
1022
1022
1022
1023
1023
1022
401
0
0
0
0
0
95
161
221
238
239
233
292
855
1022
1022
1022
1022
1022
948
302
0
0
0
0
0
31
116
191
220
239
249
324
909
1022
1022
1022
1022
1022
1022
428
0
0
0
0
0
83
143
199
212
218
217
277
856
1022
1022
1022
1022
1022
959
312
0
0
0
0
0
44
113
180
204
214
212
279
863
1022
1022
1022
1022
1022
964
312
0
0
0
0
0
38
120
185
211
220
223
292
880
1022
1022
1022
1023
1022
990
324
0
0
0
0
0
41
122
190
212
219
222
292
887
1022
1022
1022
1022
1022
1000
318
0
0
0
0
0
45
127
195
219
225
226
294
895
1022
1022
1022
1023
1022
1013
329
0
0
0
0
0
48
123
191
218
229
230
302
905
1022
1022
1022
1022
1022
1017
326
0
0
0
0
0
48
126
194
218
227
224
299
906
1022
1022
1022
1022
1022
1011
312
0
0
0
0
0
40
121
192
214
226
228
304
914
1022
1022
1022
1022
1023
1018
317
0
0
0
0
0
39
123
194
220
226
228
302
916
1022
1022
1022
1022
1022
1019
317
0
0
0
0
0
94
176
248
267
278
271
337
950
1022
1022
1022
1022
1023
931
251
0
0
0
0
0
49
146
226
256
273
276
350
971
1022
1022
1022
1023
1022
952
263
0
0
0
0
0
66
148
226
253
274
286
367
986
1022
1022
1022
1023
1022
1020
316
0
0
0
0
0
49
127
201
228
247
255
338
969
1022
1022
1022
1022
1023
1020
308
0
0
0
0
0
10
100
176
204
224
229
321
958
1022
1022
1022
1022
1023
1021
327
0
0
0
0
0
59
140
211
228
235
232
309
929
1022
1022
1022
1022
1022
864
171
0
0
0
0
0
0
21
98
125
143
155
253
901
1022
1022
1022
1022
1022
1022
373
0
0
0
0
0
172
256
331
351
363
358
444
1022
1022
1022
1022
1022
1022
1015
295
0
0
0
0
0
0
64
129
144
158
163
258
900
1022
1022
1022
1022
1022
1001
303
0
0
0
0
0
55
128
195
214
222
219
305
934
1022
1022
1022
1022
1022
912
236
0
0
0
0
0
18
107
188
217
237
245
337
970
1022
1022
1022
1023
1022
962
278
0
0
0
0
0
20
92
160
185
199
206
303
936
1022
1022
1022
1022
1023
969
278
0
0
0
0
0
27
101
171
197
209
209
301
948
1022
1022
1022
1023
1023
966
272
0
0
0
0
0
33
108
179
204
219
221
316
964
1022
1022
1022
1022
1023
960
270
0
0
0
0
0
41
115
192
214
225
228
327
974
1022
1022
1022
1022
1022
980
277
0
0
0
0
0
39
121
197
218
229
231
328
982
1022
1022
1022
1022
1023
970
271
0
0
0
0
0
47
127
201
218
230
231
326
982
1022
1022
1022
1022
1023
976
275
0
0
0
0
0
53
132
205
224
237
239
343
997
1022
1022
1022
1022
1022
976
280
0
0
0
0
0
45
128
201
220
235
236
337
992
1022
1022
1022
1022
1023
969
271
0
0
0
0
0
52
127
197
216
227
224
327
980
1022
1022
1022
1022
1022
927
232
0
0
0
0
0
0
88
163
183
194
195
302
952
1022
1022
1022
1023
1023
908
219
0
0
0
0
0
31
115
188
211
228
231
345
1004
1022
1022
1022
1022
1022
962
271
0
0
0
0
0
55
136
206
220
230
227
333
986
1022
1022
1022
1022
1022
932
240
0
0
0
0
0
43
120
195
218
236
241
353
1008
1022
1022
1022
1022
1022
992
289
0
0
0
0
0
96
169
238
255
264
259
369
1014
1022
1022
1022
1023
1022
935
251
0
0
0
0
0
37
108
185
203
216
220
337
993
1022
1022
1022
1022
1022
936
253
0
0
0
0
0
62
139
210
225
237
234
344
997
1022
1022
1022
1022
1022
920
230
0
0
0
0
0
30
92
163
182
195
198
316
979
1022
1022
1022
1022
1022
911
233
0
0
0
0
0
65
130
209
227
243
246
365
1017
1022
1022
1022
1022
1022
945
260
0
0
0
0
0
66
142
208
218
229
227
344
1000
1022
1022
1022
1022
1022
900
217
0
0
0
0
0
27
99
175
188
203
206
327
990
1022
1022
1023
1023
1023
915
224
0
0
0
0
0
49
127
195
215
227
227
353
1013
1022
1022
1022
1022
1022
914
227
0
0
0
0
0
61
138
216
233
248
247
372
1021
1022
1022
1022
1022
1022
927
237
0
0
0
0
0
56
125
200
212
225
224
353
1014
1022
1022
1022
1022
1022
910
216
0
0
0
0
0
54
126
196
211
224
223
353
1016
1022
1022
1022
1022
1023
914
216
0
0
0
0
0
52
129
201
214
225
227
355
1018
1022
1022
1022
1022
1023
895
201
0
0
0
0
0
49
129
202
217
227
226
360
1020
1022
1022
1022
1022
1022
895
192
0
0
0
0
0
0
72
142
158
168
169
307
992
1022
1022
1022
1022
1022
871
182
0
0
0
0
0
51
133
212
231
248
250
390
1022
1022
1022
1022
1022
1022
922
223
0
0
0
0
0
40
112
187
196
205
201
337
1011
1022
1022
1022
1022
1022
859
172
0
0
0
0
0
35
116
190
206
222
223
366
1021
1022
1022
1022
1022
1023
903
210
0
0
0
0
0
40
109
177
185
196
192
327
999
1022
1022
1022
1022
1022
827
134
0
0
0
0
0
0
80
161
178
193
197
348
1015
1022
1022
1022
1022
1022
906
230
0
0
0
0
0
97
162
238
255
265
263
410
1022
1022
1022
1022
1022
1022
894
205
0
0
0
0
0
77
151
227
244
263
270
427
1022
1022
1022
1022
1022
1022
981
289
0
0
0
0
0
139
206
269
273
273
262
399
1022
1022
1022
1022
1022
1022
832
152
0
0
0
0
0
0
76
150
170
187
195
350
1017
1022
1022
1022
1022
1022
902
233
0
0
0
0
0
121
199
262
275
280
275
422
1022
1022
1022
1022
1022
1022
854
178
0
0
0
0
0
37
112
184
196
211
218
376
1021
1022
1022
1022
1022
1022
920
255
0
0
0
0
0
159
238
307
315
327
322
467
1022
1022
1022
1022
1023
1022
876
195
0
0
0
0
0
16
76
140
145
152
145
301
968
1022
1022
1022
1023
1022
787
123
0
0
0
0
0
39
115
191
205
219
219
378
1020
1022
1022
1022
1022
1022
855
188
0
0
0
0
0
62
129
195
202
208
205
359
1012
1022
1022
1022
1022
1022
804
144
0
0
0
0
0
37
112
182
199
215
218
379
1020
1022
1022
1022
1022
1022
868
216
0
0
0
0
0
121
192
265
277
285
281
438
1022
1022
1022
1022
1022
1023
852
194
0
0
0
0
0
66
130
194
201
207
203
364
1011
1022
1022
1022
1022
1022
821
174
0
0
0
0
0
92
169
243
258
274
278
439
1022
1022
1022
1022
1022
1022
879
238
0
0
0
0
0
117
181
245
252
259
252
413
1021
1022
1022
1022
1022
1022
814
169
0
0
0
0
0
70
137
204
216
232
236
404
1021
1022
1022
1022
1023
1022
860
223
0
0
0
0
0
144
209
277
283
295
291
447
1022
1022
1022
1022
1022
1022
810
171
0
0
0
0
0
62
122
186
194
205
207
372
1009
1022
1022
1022
1023
1023
811
185
0
0
0
0
0
89
145
209
223
236
236
399
1017
1022
1022
1022
1022
1022
805
176
0
0
0
0
0
91
156
222
230
241
239
403
1017
1022
1022
1022
1022
1022
799
173
0
0
0
0
0
94
159
224
235
246
242
404
1017
1022
1022
1022
1022
1022
800
183
0
0
0
0
0
101
167
230
236
245
243
409
1017
1022
1022
1022
1022
1022
797
184
0
0
0
0
0
109
176
235
248
255
251
412
1018
1022
1022
1022
1022
1022
787
174
0
0
0
0
0
95
160
224
231
242
240
406
1014
1022
1022
1022
1022
1022
797
188
0
0
0
0
0
109
174
236
242
251
251
422
1019
1022
1022
1022
1022
1022
807
200
0
0
0
0
0
129
197
261
269
279
276
441
1021
1022
1022
1022
1022
1022
806
196
0
0
0
0
0
116
179
239
245
253
250
421
1019
1022
1022
1022
1022
1022
796
192
0
0
0
0
0
116
172
232
236
246
244
417
1017
1022
1022
1022
1022
1022
785
180
0
0
0
0
0
123
181
243
252
259
256
435
1021
1022
1022
1022
1022
1022
792
193
0
0
0
0
0
117
175
236
244
254
252
424
1020
1022
1022
1022
1022
1022
778
177
0
0
0
0
0
114
163
224
233
243
244
419
1017
1022
1022
1022
1022
1022
766
168
0
0
0
0
0
113
171
231
241
250
249
428
1019
1022
1022
1022
1022
1022
770
174
0
0
0
0
0
108
166
224
230
239
236
418
1018
1022
1022
1022
1022
1022
760
167
0
0
0
0
0
106
163
228
236
243
239
423
1017
1022
1022
1022
1022
1022
763
160
0
0
0
0
0
104
159
220
226
232
232
415
1016
1022
1022
1022
1022
1022
762
165
0
0
0
0
0
107
169
228
232
244
243
426
1019
1022
1022
1022
1022
1022
763
164
0
0
0
0
0
114
178
241
247
256
251
436
1021
1022
1022
1022
1022
1022
772
171
0
0
0
0
0
121
183
244
248
256
255
439
1022
1022
1022
1022
1023
1022
782
185
0
0
0
0
0
134
192
254
259
268
265
450
1022
1022
1022
1022
1022
1022
784
184
0
0
0
0
0
132
197
258
261
268
267
456
1022
1022
1022
1022
1022
1022
794
194
0
0
0
0
17
140
201
260
270
277
273
461
1022
1022
1022
1022
1022
1022
773
172
0
0
0
0
0
123
188
248
254
265
262
452
1022
1022
1022
1022
1022
1022
784
186
0
0
0
0
25
144
204
262
270
281
277
471
1022
1022
1022
1022
1022
1022
783
186
0
0
0
0
9
137
193
252
261
267
265
459
1022
1022
1022
1022
1022
1022
767
175
0
0
0
0
15
133
180
246
254
263
262
452
1022
1022
1022
1022
1022
1022
753
159
0
0
0
0
0
127
183
244
253
265
265
461
1022
1022
1022
1022
1022
1022
760
169
0
0
0
0
0
124
183
240
242
250
247
446
1022
1022
1022
1022
1022
1022
753
160
0
0
0
0
0
127
185
241
247
257
253
450
1022
1022
1022
1022
1023
1022
743
154
0
0
0
0
0
123
179
238
241
252
253
449
1021
1022
1022
1022
1022
1022
741
155
0
0
0
0
0
122
182
238
243
250
247
448
1021
1022
1022
1022
1022
1022
741
155
0
0
0
0
0
124
176
233
243
253
249
448
1021
1022
1022
1022
1022
1022
742
150
0
0
0
0
0
121
185
242
246
254
252
453
1022
1022
1022
1022
1022
1022
741
148
0
0
0
0
0
123
177
239
245
252
252
454
1022
1022
1022
1022
1022
1022
745
154
0
0
0
0
0
124
176
230
238
249
248
451
1022
1022
1022
1022
1022
1022
752
153
0
0
0
0
0
126
180
243
248
254
253
457
1022
1022
1022
1022
1022
1022
743
144
0
0
0
0
0
126
186
242
246
257
257
463
1022
1022
1022
1022
1022
1022
755
163
0
0
0
0
25
141
200
256
261
269
263
473
1022
1022
1022
1022
1022
1022
748
152
0
0
0
0
14
132
188
247
250
262
260
470
1022
1022
1022
1022
1022
1022
739
140
0
0
0
0
0
124
184
243
250
260
258
468
1022
1022
1022
1022
1022
1022
738
134
0
0
0
0
0
127
182
239
247
254
249
463
1022
1022
1022
1022
1022
1022
733
127
0
0
0
0
0
121
178
238
245
257
255
469
1022
1022
1022
1022
1022
1022
738
133
0
0
0
0
0
122
176
233
241
249
248
469
1022
1022
1022
1022
1022
1022
734
127
0
0
0
0
0
123
175
232
241
250
248
472
1022
1022
1022
1022
1022
1022
734
124
0
0
0
0
0
121
174
233
241
248
247
471
1022
1022
1022
1022
1022
1022
730
119
0
0
0
0
0
108
166
227
233
244
243
471
1022
1022
1022
1022
1022
1022
732
113
0
0
0
0
0
118
176
234
243
254
253
480
1022
1022
1022
1022
1022
1022
733
111
0
0
0
0
0
119
176
235
243
253
250
481
1022
1022
1022
1022
1022
1022
733
108
0
0
0
0
0
113
169
231
238
246
243
475
1022
1022
1022
1022
1022
1022
736
107
0
0
0
0
0
110
169
229
233
242
240
476
1022
1022
1022
1022
1022
1022
727
102
0
0
0
0
0
112
174
230
238
247
242
478
1022
1022
1022
1022
1022
1022
720
95
0
0
0
0
0
111
173
231
238
245
243
484
1022
1022
1022
1022
1022
1022
729
104
0
0
0
0
0
109
169
231
236
244
242
482
1022
1022
1022
1022
1022
1022
731
103
0
0
0
0
0
115
177
236
243
252
248
485
1022
1022
1022
1022
1022
1022
722
99
0
0
0
0
0
119
176
235
242
251
248
484
1022
1022
1022
1022
1022
1022
723
103
0
0
0
0
0
118
171
231
238
247
244
486
1022
1022
1022
1022
1022
1022
724
100
0
0
0
0
0
118
171
232
240
252
248
488
1022
1022
1022
1022
1022
1022
719
99
0
0
0
0
0
119
178
236
243
250
249
490
1022
1022
1022
1022
1022
1022
723
108
0
0
0
0
12
115
160
221
236
247
246
491
1022
1022
1022
1022
1022
1022
713
107
0
0
0
0
0
121
174
233
235
246
249
490
1022
1022
1022
1022
1022
1022
717
103
0
0
0
0
0
125
179
236
242
249
246
490
1022
1022
1022
1022
1022
1022
714
105
0
0
0
0
0
124
183
242
242
250
249
494
1022
1022
1022
1022
1022
1022
714
108
0
0
0
0
0
125
188
246
248
255
254
496
1022
1022
1022
1022
1022
1022
715
105
0
0
0
0
7
130
184
245
249
259
256
499
1022
1022
1022
1022
1022
1022
715
104
0
0
0
0
7
130
185
243
248
254
250
499
1022
1022
1022
1022
1022
1022
715
104
0
0
0
0
19
133
190
244
247
257
256
499
1022
1022
1022
1022
1022
1022
704
101
0
0
0
0
14
129
189
245
249
259
255
505
1022
1022
1022
1022
1022
1022
708
107
0
0
0
0
13
129
187
242
249
255
251
498
1022
1022
1022
1022
1022
1022
701
102
0
0
0
0
21
131
190
246
249
254
253
503
1022
1022
1022
1022
1022
1022
702
99
0
0
0
0
14
130
189
245
250
256
251
500
1022
1022
1022
1022
1022
1022
699
99
0
0
0
0
16
130
186
241
244
249
247
499
1022
1022
1022
1022
1022
1022
696
94
0
0
0
0
20
131
189
244
250
256
251
501
1022
1022
1022
1022
1022
1022
697
94
0
0
0
0
15
129
186
241
246
254
250
506
1022
1022
1022
1022
1022
1022
688
94
0
0
0
0
24
131
189
242
248
255
250
504
1022
1022
1022
1022
1022
1022
694
97
0
0
0
0
24
127
184
239
241
250
246
500
1022
1022
1022
1022
1022
1022
689
92
0
0
0
0
22
130
188
242
247
255
255
513
1022
1022
1022
1022
1022
1022
685
92
0
0
0
0
29
137
194
246
247
259
255
506
1022
1022
1022
1022
1022
1022
686
95
0
0
0
0
35
140
195
249
254
262
258
518
1022
1022
1022
1022
1022
1022
692
102
0
0
0
0
39
143
195
249
253
262
260
519
1022
1022
1022
1022
1022
1022
694
103
0
0
0
0
45
150
203
258
262
265
264
525
1022
1022
1022
1022
1022
1022
695
107
0
0
0
0
46
150
198
251
255
259
255
512
1022
1022
1022
1022
1022
1022
681
94
0
0
0
0
36
140
200
251
253
257
253
508
1022
1022
1022
1022
1022
1022
675
89
0
0
0
0
32
134
185
234
240
250
247
507
1022
1022
1022
1022
1022
1022
675
91
0
0
0
0
38
143
196
248
249
258
259
519
1022
1022
1022
1022
1022
1022
667
88
0
0
0
0
39
142
194
248
252
257
252
515
1022
1022
1022
1022
1022
1022
672
95
0
0
0
0
43
144
195
246
249
257
255
517
1022
1022
1022
1022
1022
1022
669
88
0
0
0
0
40
142
198
245
254
260
255
518
1022
1022
1022
1022
1022
1022
667
90
0
0
0
0
39
142
195
250
252
259
256
519
1022
1022
1022
1022
1022
1022
675
97
0
0
0
0
47
147
203
254
257
261
258
524
1022
1022
1022
1022
1022
1022
671
95
0
0
0
0
45
146
199
250
258
265
264
527
1022
1022
1022
1022
1022
1022
669
95
0
0
0
0
49
152
206
253
258
267
262
526
1022
1022
1022
1022
1022
1022
669
99
0
0
0
0
52
153
209
258
257
266
265
528
1022
1022
1022
1022
1022
1022
670
102
0
0
0
0
55
155
207
255
257
264
262
527
1022
1022
1022
1022
1022
1022
665
100
0
0
0
0
59
157
213
262
267
272
269
532
1022
1022
1022
1022
1022
1022
664
104
0
0
0
0
61
159
212
260
263
270
266
527
1022
1022
1022
1022
1022
1022
662
108
0
0
0
0
66
164
215
259
265
271
267
527
1022
1022
1022
1022
1022
1022
658
103
0
0
0
0
70
166
217
259
263
271
270
533
1022
1022
1022
1022
1022
1022
659
110
0
0
0
0
75
169
217
266
268
272
270
529
1022
1022
1022
1022
1022
1022
653
111
0
0
0
0
76
171
222
267
267
273
267
526
1022
1022
1022
1022
1022
1022
655
118
0
0
0
0
77
171
220
263
268
273
271
531
1022
1022
1022
1022
1022
1022
650
111
0
0
0
0
76
167
217
261
264
270
268
526
1022
1022
1022
1022
1022
1022
646
109
0
0
0
0
83
174
222
267
269
273
271
531
1022
1022
1022
1022
1022
1022
644
113
0
0
0
0
83
171
219
263
265
270
268
529
1022
1022
1022
1022
1022
1022
645
111
0
0
0
0
82
171
219
264
266
270
268
527
1022
1022
1022
1022
1022
1022
646
115
0
0
0
0
87
175
221
265
268
270
270
532
1022
1022
1022
1022
1022
1022
647
117
0
0
0
0
83
174
224
263
268
271
269
530
1022
1022
1022
1022
1022
1022
646
121
0
0
0
0
90
179
227
270
273
277
274
535
1022
1022
1022
1022
1022
1022
643
118
0
0
0
0
91
179
227
271
274
276
274
535
1022
1022
1022
1022
1022
1022
636
119
0
0
0
0
95
182
231
273
271
274
271
534
1022
1022
1022
1022
1022
1022
635
118
0
0
0
0
103
188
231
273
275
277
272
531
1022
1022
1022
1022
1022
1022
643
127
0
0
0
0
103
188
236
274
274
279
276
535
1022
1022
1022
1022
1022
1022
641
129
0
0
0
0
108
193
240
279
281
284
283
543
1022
1022
1022
1022
1022
1022
632
130
0
0
0
0
108
195
241
280
277
280
277
534
1022
1022
1022
1022
1022
1022
637
135
0
0
0
0
111
191
241
280
280
281
277
531
1021
1022
1022
1022
1022
1022
638
139
0
0
0
0
116
199
240
278
279
283
281
537
1022
1022
1022
1022
1022
1022
632
135
0
0
0
0
120
201
244
280
280
283
282
541
1022
1022
1022
1022
1022
1022
630
132
0
0
0
0
120
200
242
280
282
286
284
541
1022
1022
1022
1022
1022
1022
631
128
0
0
0
0
119
196
235
275
277
280
279
542
1022
1022
1022
1022
1022
1022
633
129
0
0
0
0
115
191
235
276
280
281
278
547
1022
1022
1022
1022
1022
1022
621
116
0
0
0
0
105
189
237
275
275
280
277
545
1022
1022
1022
1022
1022
1022
625
113
0
0
0
0
104
187
234
269
273
278
274
545
1022
1022
1022
1022
1022
1022
623
107
0
0
0
0
108
191
235
273
275
278
276
552
1022
1022
1022
1022
1022
1022
621
108
0
0
0
0
107
189
233
274
275
278
275
551
1022
1022
1022
1022
1022
1022
617
99
0
0
0
0
104
188
231
270
270
278
275
552
1022
1022
1022
1022
1022
1022
608
90
0
0
0
0
97
180
229
268
271
274
273
556
1022
1022
1022
1022
1022
1022
606
88
0
0
0
0
100
184
228
267
270
273
272
557
1022
1022
1022
1022
1022
1022
603
81
0
0
0
0
99
184
231
271
273
275
273
562
1022
1022
1022
1022
1022
1022
612
88
0
0
0
0
101
179
222
268
273
277
275
562
1022
1022
1022
1022
1022
1022
614
86
0
0
0
0
96
181
228
270
269
274
276
568
1022
1022
1022
1022
1022
1022
612
77
0
0
0
0
97
181
232
271
271
273
271
570
1022
1022
1022
1022
1022
1022
607
73
0
0
0
0
88
179
232
271
271
271
268
568
1022
1022
1022
1022
1022
1022
604
61
0
0
0
0
89
179
230
268
265
269
269
570
1022
1022
1022
1022
1022
1022
608
60
0
0
0
0
88
177
225
265
266
267
266
579
1022
1022
1022
1022
1022
1022
603
52
0
0
0
0
85
174
223
265
269
270
268
587
1022
1022
1022
1022
1022
1022
603
45
0
0
0
0
77
167
217
262
266
270
267
589
1022
1022
1022
1022
1022
1022
598
33
0
0
0
0
75
162
212
254
259
260
259
586
1022
1022
1022
1022
1022
1022
599
25
0
0
0
0
65
157
211
254
257
260
259
591
1022
1022
1022
1022
1022
1022
593
20
0
0
0
0
67
161
215
256
256
263
263
600
1022
1022
1022
1022
1022
1022
592
15
0
0
0
0
66
160
213
255
258
260
260
600
1022
1022
1022
1022
1022
1022
592
15
0
0
0
0
61
155
209
254
259
259
261
603
1022
1022
1022
1022
1022
1022
591
7
0
0
0
0
61
154
206
249
251
254
252
600
1022
1022
1022
1022
1022
1022
588
3
0
0
0
0
60
156
212
255
256
260
259
608
1022
1022
1022
1022
1022
1022
584
3
0
0
0
0
60
155
208
250
253
256
259
609
1022
1022
1022
1022
1022
1022
590
4
0
0
0
0
67
156
207
252
257
261
264
613
1022
1022
1022
1022
1022
1022
580
2
0
0
0
0
62
152
204
247
251
256
260
615
1022
1022
1022
1022
1022
1022
575
0
0
0
0
0
66
152
204
247
252
259
264
618
1022
1022
1022
1022
1022
1022
573
0
0
0
0
0
63
153
203
246
251
255
259
616
1022
1022
1022
1022
1022
1022
572
1
0
0
0
0
71
155
204
248
258
263
265
620
1022
1022
1022
1022
1022
1022
571
1
0
0
0
0
76
160
211
251
253
259
269
625
1022
1022
1022
1022
1022
1022
574
4
0
0
0
0
83
159
207
251
257
264
270
624
1022
1022
1022
1022
1022
1022
566
1
0
0
0
0
81
163
212
253
256
262
269
628
1022
1022
1022
1022
1022
1022
568
3
0
0
0
0
85
165
211
255
263
271
278
634
1022
1022
1022
1022
1022
1022
564
4
0
0
0
0
83
167
216
255
264
269
273
627
1022
1022
1022
1022
1022
1022
560
1
0
0
0
0
93
170
214
255
262
266
270
624
1022
1022
1022
1022
1022
1022
560
3
0
0
0
0
87
163
212
254
261
267
271
630
1022
1022
1022
1022
1022
1022
558
1
0
0
0
0
86
171
221
261
264
270
273
629
1022
1022
1022
1022
1022
1022
557
1
0
0
0
0
89
173
225
264
268
273
276
636
1023
1022
1022
1022
1022
1022
553
0
0
0
0
0
91
167
215
256
263
267
271
635
1022
1022
1022
1022
1022
1022
547
0
0
0
0
0
89
170
219
258
261
263
269
630
1022
1022
1022
1022
1022
1022
543
0
0
0
0
0
90
173
222
259
263
267
271
632
1022
1022
1022
1022
1022
1022
551
0
0
0
0
0
88
169
224
258
260
263
270
633
1022
1022
1022
1022
1022
1022
544
1
0
0
0
0
95
178
227
264
267
269
271
633
1022
1022
1022
1022
1022
1022
537
2
0
0
0
0
97
176
227
263
266
267
269
622
1022
1022
1022
1022
1022
1022
540
5
0
0
0
0
106
189
238
270
275
275
280
636
1022
1022
1022
1022
1022
1022
535
14
0
0
0
0
112
190
242
273
278
281
286
630
1022
1022
1022
1022
1022
1022
545
31
0
0
0
0
123
199
245
275
280
279
284
623
1022
1022
1022
1022
1022
1022
550
56
0
0
0
0
140
215
260
292
295
295
299
626
1022
1022
1022
1022
1022
1021
551
67
0
0
0
23
155
224
269
296
298
299
301
619
1022
1022
1022
1022
1022
1017
543
72
0
0
0
35
161
228
271
295
297
294
298
614
1022
1022
1022
1022
1022
980
543
89
0
0
0
48
169
230
271
291
297
299
303
609
1022
1022
1022
1022
1022
967
544
95
0
0
0
52
172
234
273
299
301
300
305
606
1022
1022
1022
1022
1022
959
546
109
0
0
0
69
184
240
278
301
303
303
309
608
1020
1022
1022
1022
1022
953
545
119
0
0
0
79
191
251
283
309
308
307
312
608
1020
1022
1022
1022
1022
948
547
127
0
0
0
88
199
255
289
314
312
307
311
601
1018
1022
1022
1022
1022
947
552
135
0
0
0
93
201
257
293
314
311
310
315
605
1017
1022
1022
1022
1022
945
550
130
0
0
0
90
201
253
287
302
305
307
311
604
1018
1022
1022
1022
1022
946
547
128
0
0
0
88
198
251
284
302
305
302
308
606
1020
1022
1022
1022
1022
941
543
119
0
0
0
79
190
248
286
307
305
302
306
607
1020
1022
1022
1022
1022
936
537
110
0
0
0
79
189
245
283
301
299
296
301
602
1020
1022
1022
1022
1022
934
534
112
0
0
0
81
192
249
279
299
295
293
298
601
1018
1022
1022
1022
1022
927
520
94
0
0
0
74
183
240
280
301
299
296
301
600
1019
1022
1022
1022
1022
935
535
110
0
0
0
79
187
243
279
300
301
298
304
607
1020
1022
1022
1022
1022
930
530
107
0
0
0
85
195
251
287
309
309
306
311
614
1021
1022
1022
1022
1022
934
532
111
0
0
0
86
196
253
289
310
310
306
314
615
1020
1022
1022
1022
1022
926
531
114
0
0
0
89
200
257
293
312
311
306
313
614
1020
1022
1022
1022
1022
928
533
117
0
0
0
99
207
254
287
307
304
304
315
618
1021
1022
1022
1022
1022
928
531
112
0
0
0
95
201
257
292
312
311
308
316
619
1021
1022
1022
1022
1022
928
530
115
0
0
0
95
201
258
295
312
315
311
319
622
1020
1022
1022
1022
1022
926
533
117
0
0
0
96
204
257
295
312
310
308
316
621
1021
1022
1022
1022
1022
926
531
117
0
0
0
101
207
259
290
310
309
304
313
623
1020
1022
1022
1022
1022
921
530
114
0
0
0
97
203
255
291
309
304
302
312
616
1020
1022
1022
1022
1022
921
524
105
0
0
0
88
198
256
292
311
308
306
315
628
1022
1022
1022
1022
1022
921
525
107
0
0
0
93
199
252
289
305
304
302
314
628
1022
1022
1022
1022
1022
926
521
97
0
0
0
92
199
253
289
306
309
308
319
638
1022
1022
1022
1022
1022
921
514
83
0
0
0
83
191
244
281
302
302
300
310
637
1022
1022
1022
1022
1022
939
518
75
0
0
0
76
189
235
273
296
298
299
312
647
1022
1022
1022
1022
1022
941
508
56
0
0
0
56
175
231
270
292
295
295
307
650
1022
1022
1023
1022
1022
952
505
43
0
0
0
40
161
223
264
286
287
285
298
652
1022
1022
1022
1022
1022
958
497
22
0
0
0
35
158
217
258
280
282
282
295
664
1022
1022
1022
1022
1022
961
496
10
0
0
0
20
149
214
257
278
281
280
297
668
1022
1022
1022
1022
1022
975
497
7
0
0
0
14
148
210
253
276
280
281
295
675
1022
1022
1022
1022
1022
969
488
1
0
0
0
0
143
210
256
279
283
283
298
679
1022
1022
1022
1022
1022
979
492
0
0
0
0
7
144
208
253
276
284
284
300
683
1022
1022
1022
1022
1022
974
489
0
0
0
0
3
145
209
255
279
282
283
301
681
1022
1022
1022
1022
1022
966
489
0
0
0
0
4
145
211
257
281
282
282
301
683
1022
1022
1022
1022
1022
964
486
0
0
0
0
7
146
214
261
281
286
285
302
675
1022
1022
1022
1022
1022
958
487
1
0
0
0
25
152
216
258
287
290
287
303
679
1022
1022
1022
1022
1022
958
488
5
0
0
0
30
152
213
260
283
285
284
300
672
1022
1022
1022
1022
1022
950
487
11
0
0
0
39
161
222
263
285
287
285
301
667
1022
1022
1022
1022
1022
944
487
17
0
0
0
50
168
225
268
291
290
289
309
674
1022
1022
1022
1022
1022
943
496
23
0
0
0
56
177
237
278
300
302
298
313
678
1022
1022
1022
1022
1022
941
495
28
0
0
0
58
173
230
271
291
295
297
313
676
1022
1022
1022
1022
1022
929
488
23
0
0
0
51
169
232
276
297
300
300
315
674
1022
1022
1022
1022
1022
933
489
26
0
0
0
56
175
234
275
293
295
291
309
669
1022
1022
1022
1022
1022
936
494
31
0
0
0
60
176
233
274
292
295
293
311
671
1022
1022
1022
1022
1022
932
493
31
0
0
0
60
180
236
274
294
296
296
317
676
1022
1022
1022
1022
1022
930
489
33
0
0
0
63
179
236
280
300
304
302
319
675
1022
1022
1022
1022
1022
929
490
30
0
0
0
64
177
233
275
295
295
294
311
665
1022
1022
1022
1022
1022
921
483
31
0
0
0
64
180
238
281
297
297
295
315
670
1022
1022
1022
1022
1022
923
492
41
0
0
0
72
184
238
279
298
298
295
312
665
1022
1022
1022
1022
1022
911
483
39
0
0
0
70
180
238
277
298
299
298
319
665
1022
1022
1022
1022
1022
913
489
46
0
0
0
76
185
239
280
299
302
298
318
667
1022
1022
1022
1022
1022
910
491
51
0
0
0
86
195
248
287
305
305
303
320
670
1022
1022
1022
1022
1022
916
494
53
0
0
0
88
197
253
294
307
307
302
317
669
1022
1022
1022
1022
1022
920
494
50
0
0
0
80
190
243
286
300
304
300
318
668
1022
1022
1022
1022
1022
915
490
46
0
0
0
77
187
243
281
300
300
295
313
664
1022
1022
1022
1022
1022
913
486
38
0
0
0
70
182
238
278
295
298
297
315
669
1022
1022
1022
1022
1022
911
483
33
0
0
0
66
179
235
275
291
296
294
314
668
1022
1022
1022
1022
1022
916
487
34
0
0
0
68
181
240
279
296
300
298
317
675
1022
1022
1022
1022
1022
917
483
33
0
0
0
71
185
240
279
299
304
299
316
679
1022
1022
1022
1022
1022
921
486
32
0
0
0
66
178
233
274
292
297
293
314
676
1022
1022
1022
1022
1022
921
482
24
0
0
0
60
176
235
276
294
295
294
313
679
1022
1022
1022
1022
1022
932
486
20
0
0
0
58
174
228
271
289
293
291
311
684
1022
1022
1022
1022
1022
939
487
13
0
0
0
51
170
230
275
295
297
294
312
695
1022
1022
1022
1022
1022
940
479
2
0
0
0
41
163
223
266
287
287
286
312
699
1022
1022
1022
1022
1022
957
479
0
0
0
0
20
146
211
260
284
287
282
305
706
1022
1022
1022
1022
1022
962
476
0
0
0
0
3
143
206
255
279
280
275
298
709
1022
1022
1022
1022
1022
963
464
0
0
0
0
0
129
196
247
270
275
272
299
716
1022
1022
1022
1022
1022
972
460
0
0
0
0
0
127
194
244
269
272
269
294
723
1022
1022
1022
1022
1022
998
462
0
0
0
0
0
124
189
237
258
269
270
295
731
1022
1022
1022
1022
1022
1007
454
0
0
0
0
0
116
187
238
262
265
263
289
733
1022
1022
1022
1022
1022
1018
460
0
0
0
0
0
110
185
237
260
266
263
288
738
1022
1022
1022
1022
1022
1016
452
0
0
0
0
0
104
178
233
259
260
260
292
743
1022
1022
1022
1022
1022
1019
448
0
0
0
0
0
99
175
231
258
263
264
292
744
1022
1022
1022
1022
1022
1019
448
0
0
0
0
0
99
173
230
255
257
259
291
748
1022
1022
1022
1022
1022
1020
447
0
0
0
0
0
91
164
224
253
260
260
289
747
1022
1022
1022
1022
1022
1020
446
0
0
0
0
0
98
170
222
252
262
260
291
752
1023
1022
1022
1022
1022
1020
444
0
0
0
0
0
98
170
222
252
259
261
290
749
1022
1022
1022
1022
1022
1019
443
0
0
0
0
0
103
176
228
260
267
265
296
753
1022
1022
1022
1022
1022
1018
449
0
0
0
0
0
106
176
230
257
260
263
295
750
1022
1022
1022
1022
1022
1019
448
0
0
0
0
0
98
174
230
254
260
261
289
749
1022
1022
1022
1022
1022
1018
446
0
0
0
0
0
100
177
233
258
262
265
297
752
1022
1022
1022
1022
1022
1019
451
0
0
0
0
0
104
179
235
256
266
268
298
752
1022
1022
1022
1022
1022
1015
447
0
0
0
0
0
108
184
236
262
268
267
295
751
1022
1023
1022
1022
1022
1018
444
0
0
0
0
0
105
177
233
260
267
267
296
755
1022
1022
1022
1022
1022
1019
448
0
0
0
0
0
103
177
234
261
267
269
300
756
1023
1023
1022
1022
1022
1020
448
0
0
0
0
0
101
178
232
255
264
266
295
758
1022
1022
1022
1022
1022
1020
442
0
0
0
0
0
98
174
231
257
263
263
293
758
1022
1022
1022
1022
1022
1020
437
0
0
0
0
0
94
170
227
254
260
260
291
762
1022
1022
1022
1022
1022
1021
443
0
0
0
0
0
95
168
225
253
259
254
287
763
1022
1022
1022
1022
1022
1020
433
0
0
0
0
0
85
164
223
245
252
254
288
764
1022
1022
1022
1022
1023
1021
434
0
0
0
0
0
88
162
219
244
252
254
287
769
1022
1022
1022
1022
1022
1021
435
0
0
0
0
0
86
163
220
252
259
259
291
778
1022
1022
1022
1022
1022
1021
425
0
0
0
0
0
81
160
221
246
251
252
285
771
1022
1022
1022
1022
1022
1021
427
0
0
0
0
0
76
153
213
240
247
249
282
772
1022
1022
1022
1022
1022
1021
432
0
0
0
0
0
83
161
218
247
253
252
287
779
1022
1022
1022
1022
1022
1021
430
0
0
0
0
0
78
159
220
240
253
255
288
779
1022
1022
1022
1022
1022
1021
424
0
0
0
0
0
81
163
222
251
258
256
291
782
1022
1022
1022
1022
1022
1021
428
0
0
0
0
0
84
162
221
244
254
253
287
780
1022
1022
1022
1022
1022
1021
428
0
0
0
0
0
79
159
221
250
254
255
291
785
1022
1023
1022
1022
1022
1021
422
0
0
0
0
0
86
163
221
249
255
254
288
781
1022
1023
1022
1022
1022
1021
423
0
0
0
0
0
85
164
227
252
254
258
295
786
1022
1022
1022
1022
1022
1020
423
0
0
0
0
0
90
163
219
250
255
255
294
781
1022
1022
1022
1022
1022
1021
431
0
0
0
0
0
90
164
226
251
256
256
295
781
1022
1022
1022
1022
1022
1020
428
0
0
0
0
0
86
164
222
246
256
259
295
785
1022
1022
1022
1022
1022
1020
424
0
0
0
0
0
89
163
221
243
250
252
289
775
1022
1022
1022
1022
1022
1020
425
0
0
0
0
0
88
165
223
249
256
258
297
783
1022
1022
1022
1022
1022
1020
423
0
0
0
0
0
93
172
229
254
260
262
299
783
1022
1023
1022
1022
1022
1020
422
0
0
0
0
0
91
167
225
249
257
259
295
783
1022
1022
1022
1022
1022
1015
415
0
0
0
0
0
88
168
223
250
256
257
298
785
1022
1022
1022
1022
1022
1019
423
0
0
0
0
0
88
164
222
245
255
258
297
783
1022
1022
1022
1022
1022
1015
415
0
0
0
0
0
88
164
224
249
254
255
296
785
1023
1023
1022
1022
1022
1018
419
0
0
0
0
0
90
165
221
251
258
260
296
786
1022
1022
1022
1022
1022
1015
414
0
0
0
0
0
91
167
225
251
257
261
295
781
1022
1022
1022
1022
1022
1014
419
0
0
0
0
0
94
167
226
251
259
262
302
787
1022
1022
1022
1022
1022
1016
416
0
0
0
0
0
88
166
227
251
257
259
295
781
1022
1023
1022
1022
1022
1015
411
0
0
0
0
0
94
170
224
252
260
261
297
786
1022
1022
1022
1022
1022
1015
421
0
0
0
0
0
99
171
223
250
259
262
299
784
1022
1022
1022
1022
1022
1016
419
0
0
0
0
0
97
168
223
252
260
261
302
788
1022
1022
1022
1022
1022
1011
418
0
0
0
0
0
94
167
223
251
259
261
300
785
1022
1023
1022
1022
1022
1004
417
0
0
0
0
0
95
168
225
249
255
255
293
780
1022
1022
1022
1022
1022
1002
417
0
0
0
0
0
97
171
225
251
260
259
303
790
1022
1022
1022
1022
1022
985
412
0
0
0
0
0
99
171
228
253
261
263
304
793
1023
1022
1022
1022
1022
994
411
0
0
0
0
0
98
172
227
250
258
259
300
786
1022
1023
1022
1022
1022
996
412
0
0
0
0
0
96
168
223
249
255
256
297
781
1022
1023
1022
1022
1023
1004
414
0
0
0
0
0
93
171
229
251
257
257
297
786
1022
1022
1022
1022
1022
1016
418
0
0
0
0
0
97
172
230
253
259
260
300
787
1022
1022
1022
1022
1022
1016
417
0
0
0
0
0
96
171
231
256
263
263
303
791
1022
1023
1022
1022
1022
991
412
0
0
0
0
0
96
169
227
249
255
255
296
785
1022
1022
1022
1022
1023
1000
410
0
0
0
0
0
95
170
226
250
258
260
301
786
1022
1022
1022
1022
1022
987
414
0
0
0
0
0
96
169
230
248
259
260
301
792
1022
1022
1022
1022
1023
1005
414
0
0
0
0
0
103
175
233
255
259
263
305
793
1022
1023
1022
1022
1022
991
410
0
0
0
0
0
97
174
232
250
260
260
302
790
1022
1022
1023
1022
1022
997
412
0
0
0
0
0
98
173
230
249
260
263
305
791
1022
1023
1022
1022
1022
980
409
0
0
0
0
0
102
173
229
249
260
260
302
787
1022
1023
1022
1022
1022
988
416
0
0
0
0
0
104
175
231
254
261
261
302
786
1022
1023
1022
1022
1022
982
413
0
0
0
0
0
105
177
233
252
263
263
305
789
1022
1022
1022
1022
1022
975
411
0
0
0
0
0
109
169
227
249
261
264
307
792
1022
1022
1022
1022
1022
976
408
0
0
0
0
0
107
174
230
255
261
262
310
796
1022
1022
1022
1022
1023
976
412
0
0
0
0
0
103
178
233
256
262
260
304
789
1022
1022
1022
1022
1022
985
413
0
0
0
0
0
111
177
232
255
261
261
302
787
1022
1023
1022
1022
1022
976
408
0
0
0
0
0
104
173
229
251
263
263
307
794
1022
1022
1022
1022
1022
967
406
0
0
0
0
0
104
171
231
252
259
259
303
792
1022
1022
1022
1022
1022
967
406
0
0
0
0
0
104
175
229
254
262
263
306
796
1022
1023
1022
1022
1023
982
408
0
0
0
0
0
102
177
236
259
264
263
304
793
1022
1022
1022
1022
1022
992
411
0
0
0
0
0
102
172
229
251
265
263
304
800
1022
1023
1022
1022
1022
977
408
0
0
0
0
0
99
170
229
252
260
260
306
801
1022
1022
1022
1022
1022
972
400
0
0
0
0
0
95
172
228
250
259
262
305
801
1022
1023
1022
1022
1022
979
400
0
0
0
0
0
96
167
228
253
260
261
306
799
1022
1023
1022
1022
1023
973
400
0
0
0
0
0
102
174
232
254
259
260
304
795
1022
1023
1022
1022
1022
966
393
0
0
0
0
0
100
174
231
253
263
261
308
807
1022
1023
1022
1022
1022
973
400
0
0
0
0
0
101
172
231
253
259
259
305
804
1022
1022
1022
1022
1022
967
399
0
0
0
0
0
101
171
229
251
259
258
305
797
1022
1022
1022
1022
1022
975
401
0
0
0
0
0
99
172
229
253
262
262
308
802
1022
1023
1022
1022
1022
970
394
0
0
0
0
0
99
174
233
253
258
261
308
805
1022
1022
1022
1022
1022
965
396
0
0
0
0
0
101
172
229
252
260
261
307
806
1022
1022
1022
1022
1022
974
402
0
0
0
0
0
101
172
230
251
258
261
306
802
1022
1023
1022
1022
1023
967
399
0
0
0
0
0
103
173
234
256
264
263
309
806
1022
1022
1022
1022
1022
962
390
0
0
0
0
0
103
174
231
255
264
266
313
810
1022
1022
1022
1022
1022
958
396
0
0
0
0
0
106
175
231
256
262
262
309
805
1022
1023
1022
1022
1022
970
401
0
0
0
0
0
108
174
236
257
262
265
315
814
1022
1022
1022
1022
1023
956
388
0
0
0
0
0
102
174
231
255
263
265
315
814
1022
1023
1022
1022
1023
964
395
0
0
0
0
0
104
174
231
252
255
255
307
805
1022
1023
1022
1022
1022
954
389
0
0
0
0
0
99
171
228
250
259
257
309
809
1022
1023
1022
1022
1022
960
391
0
0
0
0
0
104
173
227
253
260
260
307
816
1022
1023
1022
1022
1023
960
388
0
0
0
0
0
103
175
235
255
259
260
310
812
1022
1023
1022
1022
1022
965
392
0
0
0
0
0
102
170
229
246
258
260
310
811
1022
1022
1022
1022
1022
951
382
0
0
0
0
0
103
172
230
253
261
261
312
816
1022
1022
1022
1022
1022
953
382
0
0
0
0
0
99
169
227
247
256
257
308
818
1022
1022
1022
1022
1022
962
389
0
0
0
0
0
101
171
231
254
257
256
310
818
1022
1023
1022
1022
1023
964
385
0
0
0
0
0
103
172
232
253
262
261
312
822
1022
1022
1022
1022
1022
954
379
0
0
0
0
0
100
172
232
254
262
261
315
827
1022
1022
1022
1022
1022
957
383
0
0
0
0
0
101
174
236
255
261
258
311
824
1022
1023
1022
1022
1022
956
378
0
0
0
0
0
103
174
234
249
255
256
310
824
1022
1023
1022
1022
1022
958
385
0
0
0
0
0
103
171
227
246
255
254
304
823
1022
1022
1022
1022
1022
952
377
0
0
0
0
0
103
175
232
253
258
256
312
832
1022
1023
1022
1022
1022
948
376
0
0
0
0
0
103
166
223
243
254
256
311
827
1022
1022
1022
1022
1022
951
373
0
0
0
0
0
103
175
232
255
263
263
320
832
1022
1023
1022
1022
1022
944
368
0
0
0
0
0
99
171
231
252
257
255
313
832
1022
1022
1022
1022
1022
951
375
0
0
0
0
0
103
171
230
249
256
256
316
834
1022
1023
1022
1022
1022
951
378
0
0
0
0
0
111
159
217
241
252
252
312
836
1022
1023
1022
1022
1023
943
370
0
0
0
0
0
101
168
230
248
258
257
318
833
1022
1023
1022
1022
1022
944
369
0
0
0
0
0
104
173
228
252
258
261
320
840
1022
1023
1022
1022
1022
935
366
0
0
0
0
0
103
170
231
251
260
261
317
840
1022
1023
1022
1022
1022
935
370
0
0
0
0
0
108
173
231
253
259
256
316
836
1022
1023
1022
1022
1022
938
369
0
0
0
0
0
106
174
231
252
256
254
318
834
1022
1022
1022
1022
1022
937
368
0
0
0
0
0
109
175
233
253
261
262
324
841
1022
1022
1022
1022
1022
931
365
0
0
0
0
0
108
173
231
248
256
258
317
834
1022
1022
1022
1022
1023
928
367
0
0
0
0
0
112
177
236
252
262
262
326
842
1022
1023
1022
1022
1022
926
366
0
0
0
0
0
108
176
236
253
257
255
319
840
1022
1023
1022
1022
1022
927
359
0
0
0
0
0
111
179
241
257
263
262
325
847
1022
1023
1022
1022
1023
925
363
0
0
0
0
0
111
177
235
249
259
260
323
845
1022
1023
1022
1022
1022
919
358
0
0
0
0
0
110
175
235
249
258
258
322
845
1022
1022
1022
1022
1023
921
355
0
0
0
0
0
108
176
233
250
257
254
319
850
1022
1023
1022
1022
1022
919
354
0
0
0
0
0
118
183
241
259
265
263
330
857
1022
1022
1022
1022
1022
922
358
0
0
0
0
0
117
180
238
258
265
264
334
856
1022
1022
1022
1022
1022
913
348
0
0
0
0
0
111
178
239
251
260
258
326
847
1022
1022
1022
1022
1022
908
346
0
0
0
0
0
117
175
231
255
265
499
1022
1022
325
0
0
0
0
129
705
1022
1022
1023
1022
1022
940
848
784
759
753
756
702
192
0
0
0
0
0
0
618
1022
1022
1022
1022
1022
920
833
773
746
746
751
706
220
0
0
0
0
0
0
627
1022
1022
1023
1022
1022
913
824
764
748
747
753
696
161
0
0
0
0
0
44
662
1022
1022
1022
1022
1022
904
825
764
747
744
749
688
149
0
0
0
0
0
51
665
1022
1022
1023
1022
1022
904
822
760
740
739
748
684
151
0
0
0
0
0
50
664
1022
1022
1022
1022
1022
903
822
765
747
745
752
689
158
0
0
0
0
0
41
663
1022
1022
1023
1022
1022
899
833
772
752
747
751
688
155
0
0
0
0
0
44
663
1022
1022
1022
1022
1022
906
829
768
748
746
750
687
151
0
0
0
0
0
50
661
1022
1022
1022
1022
1022
900
820
761
742
739
742
675
142
0
0
0
0
0
53
661
1022
1022
1022
1022
1022
902
830
766
747
748
754
686
149
0
0
0
0
0
49
663
1022
1022
1022
1022
1022
901
824
762
745
739
749
686
149
0
0
0
0
0
52
659
1022
1022
1022
1022
1022
903
821
759
741
739
746
680
147
0
0
0
0
0
56
671
1022
1022
1023
1022
1022
898
820
760
742
740
747
674
135
0
0
0
0
0
63
674
1022
1022
1022
1022
1022
898
823
760
746
746
749
676
124
0
0
0
0
0
75
691
1022
1022
1023
1022
1022
897
819
755
743
741
746
671
123
0
0
0
0
0
78
694
1022
1022
1023
1022
1022
894
817
755
741
739
745
667
115
0
0
0
0
0
86
700
1022
1022
1023
1022
1022
898
820
759
743
737
747
672
115
0
0
0
0
0
90
703
1022
1022
1022
1022
1022
891
823
761
745
745
751
670
107
0
0
0
0
0
93
708
1022
1022
1022
1022
1022
896
817
755
739
740
744
666
108
0
0
0
0
0
95
708
1022
1022
1023
1022
1022
894
818
755
741
740
749
668
108
0
0
0
0
0
96
713
1022
1022
1023
1022
1022
891
815
753
744
742
750
669
108
0
0
0
0
0
95
712
1022
1022
1023
1022
1022
895
816
753
741
741
746
662
104
0
0
0
0
0
94
712
1022
1022
1022
1022
1022
892
816
755
744
743
750
666
103
0
0
0
0
0
91
713
1022
1022
1023
1022
1022
890
812
751
740
740
748
666
102
0
0
0
0
0
91
710
1022
1022
1023
1022
1022
896
818
757
743
744
752
671
107
0
0
0
0
0
96
715
1022
1022
1022
1022
1022
888
816
755
741
741
750
665
102
0
0
0
0
0
98
715
1022
1022
1022
1022
1022
894
816
755
738
741
750
662
95
0
0
0
0
0
104
719
1022
1022
1022
1022
1022
888
812
752
738
737
745
657
90
0
0
0
0
0
99
717
1022
1022
1023
1022
1022
888
814
753
743
741
746
656
91
0
0
0
0
0
102
722
1022
1022
1022
1022
1022
892
816
751
737
738
744
650
88
0
0
0
0
0
108
724
1022
1022
1023
1022
1022
886
808
749
737
737
745
654
86
0
0
0
0
0
110
726
1022
1022
1022
1022
1022
888
815
755
736
740
748
655
81
0
0
0
0
0
115
734
1022
1022
1023
1022
1022
889
811
746
738
741
747
650
80
0
0
0
0
0
115
730
1022
1022
1022
1022
1022
883
815
758
743
737
745
650
80
0
0
0
0
0
119
733
1022
1022
1022
1022
1022
887
811
752
743
743
750
652
81
0
0
0
0
0
122
736
1022
1022
1022
1022
1022
885
814
754
742
744
751
650
79
0
0
0
0
0
124
737
1022
1022
1022
1022
1022
889
813
752
739
736
744
648
75
0
0
0
0
0
123
739
1022
1022
1022
1022
1022
888
813
750
739
736
743
647
73
0
0
0
0
0
121
737
1022
1022
1022
1022
1022
886
815
756
746
744
749
647
72
0
0
0
0
0
132
746
1022
1022
1022
1022
1022
883
813
748
734
740
748
645
70
0
0
0
0
0
127
742
1022
1022
1022
1022
1022
881
812
755
743
740
748
643
67
0
0
0
0
0
133
746
1022
1022
1022
1022
1022
882
814
755
743
741
747
639
63
0
0
0
0
0
129
745
1022
1023
1022
1022
1022
882
812
751
739
739
748
643
65
0
0
0
0
0
134
752
1022
1022
1022
1022
1022
885
810
750
738
740
748
638
60
0
0
0
0
0
127
743
1022
1022
1022
1022
1022
884
810
747
736
735
744
635
63
0
0
0
0
0
134
751
1022
1022
1023
1022
1022
881
805
748
739
736
745
637
59
0
0
0
0
0
135
752
1022
1022
1023
1022
1022
881
813
751
742
742
748
639
61
0
0
0
0
0
136
752
1022
1022
1022
1022
1022
886
811
751
743
740
747
636
57
0
0
0
0
0
143
757
1022
1023
1022
1022
1022
883
808
748
738
739
747
633
54
0
0
0
0
0
144
756
1022
1022
1022
1022
1022
886
815
754
743
742
749
635
54
0
0
0
0
0
147
757
1022
1022
1022
1022
1022
880
808
752
742
742
750
635
56
0
0
0
0
0
142
752
1022
1022
1022
1022
1022
881
814
752
743
741
748
630
53
0
0
0
0
0
149
761
1022
1022
1022
1022
1022
885
812
750
743
743
750
633
51
0
0
0
0
0
144
756
1022
1022
1023
1022
1022
882
810
751
744
740
744
624
45
0
0
0
0
0
148
762
1022
1022
1023
1022
1022
877
810
751
739
735
743
623
43
0
0
0
0
0
150
764
1022
1022
1023
1022
1022
881
813
752
742
741
747
627
43
0
0
0
0
0
157
765
1022
1022
1022
1022
1022
880
815
751
739
738
743
622
40
0
0
0
0
0
152
765
1022
1022
1023
1022
1022
881
814
757
746
743
748
627
44
0
0
0
0
0
154
764
1022
1022
1023
1022
1022
881
807
747
739
738
743
617
35
0
0
0
0
0
161
769
1022
1022
1023
1022
1022
880
806
746
738
737
745
619
39
0
0
0
0
0
154
770
1022
1022
1022
1022
1022
880
812
747
742
739
748
625
38
0
0
0
0
0
156
769
1022
1022
1022
1022
1022
881
811
750
742
740
746
622
39
0
0
0
0
0
156
767
1022
1022
1022
1022
1022
878
817
754
744
742
748
620
36
0
0
0
0
0
168
780
1022
1022
1022
1022
1022
884
811
748
737
738
743
618
33
0
0
0
0
0
161
777
1022
1022
1022
1022
1022
880
812
753
744
740
748
623
36
0
0
0
0
0
164
776
1022
1022
1022
1022
1022
883
813
746
743
741
748
619
34
0
0
0
0
0
162
772
1022
1022
1022
1022
1022
874
808
750
741
742
749
619
31
0
0
0
0
0
167
780
1022
1022
1022
1022
1022
879
804
744
736
735
743
613
31
0
0
0
0
0
168
779
1022
1022
1022
1022
1022
877
814
752
743
741
747
616
31
0
0
0
0
0
169
778
1022
1022
1022
1022
1022
876
804
743
735
735
744
615
32
0
0
0
0
0
161
775
1022
1022
1023
1022
1022
882
808
750
741
740
745
614
28
0
0
0
0
0
172
785
1022
1022
1022
1022
1022
880
812
751
740
740
744
616
32
0
0
0
0
0
167
777
1022
1022
1022
1022
1022
875
811
747
739
737
745
612
28
0
0
0
0
0
170
783
1022
1022
1022
1022
1022
880
811
745
739
737
744
615
31
0
0
0
0
0
168
782
1022
1022
1022
1022
1022
876
807
748
738
736
743
614
27
0
0
0
0
0
176
789
1022
1022
1022
1022
1022
873
811
751
743
740
747
614
26
0
0
0
0
0
176
786
1022
1022
1022
1022
1022
876
811
747
743
739
748
615
27
0
0
0
0
0
172
786
1022
1022
1022
1022
1022
875
809
747
739
737
746
613
22
0
0
0
0
0
175
791
1022
1022
1022
1022
1021
872
811
750
741
740
746
614
24
0
0
0
0
0
174
785
1022
1022
1022
1022
1022
870
806
747
738
732
737
606
18
0
0
0
0
0
180
787
1022
1022
1022
1022
1021
874
809
750
742
741
747
614
28
0
0
0
0
0
172
781
1022
1022
1022
1022
1021
872
809
753
742
740
746
614
29
0
0
0
0
0
173
781
1022
1022
1022
1022
1022
873
803
743
735
734
744
616
32
0
0
0
0
0
172
776
1022
1022
1022
1022
1022
877
809
749
736
736
743
610
22
0
0
0
0
0
175
786
1022
1022
1022
1022
1021
875
803
742
736
736
743
611
20
0
0
0
0
0
175
792
1022
1022
1022
1022
1021
869
804
743
737
736
743
612
23
0
0
0
0
0
175
788
1022
1022
1022
1022
1021
873
807
748
742
740
748
611
21
0
0
0
0
0
182
792
1022
1022
1022
1022
1021
871
807
748
740
739
745
610
16
0
0
0
0
0
174
792
1022
1022
1022
1022
1022
879
804
745
737
737
742
609
13
0
0
0
0
0
181
802
1022
1022
1022
1022
1021
872
801
740
735
732
739
605
6
0
0
0
0
0
193
813
1022
1022
1022
1022
1021
870
800
740
733
735
745
605
4
0
0
0
0
0
193
822
1022
1022
1022
1022
1021
868
804
745
738
736
742
601
0
0
0
0
0
0
204
833
1022
1022
1022
1022
1021
870
799
739
735
736
743
603
0
0
0
0
0
0
206
829
1022
1022
1022
1022
1020
865
796
737
735
734
740
601
1
0
0
0
0
0
200
820
1022
1022
1022
1022
1021
867
798
736
730
731
741
607
7
0
0
0
0
0
188
809
1022
1022
1022
1022
1021
871
801
742
733
736
742
615
46
0
0
0
0
0
149
752
1022
1022
1022
1022
1022
881
791
730
687
678
642
682
532
0
0
0
0
0
0
0
0
0
0
0
46
214
304
387
416
435
440
577
1022
1022
1023
1022
1022
1022
956
424
0
0
0
0
190
295
344
393
400
407
399
527
1022
1022
1022
1022
1022
1022
892
362
0
0
0
0
145
252
301
352
358
365
361
492
1016
1022
1022
1022
1022
1022
863
335
0
0
0
0
120
228
273
323
331
337
336
467
994
1022
1022
1022
1022
1022
845
319
0
0
0
0
98
206
260
312
315
322
319
448
976
1022
1022
1022
1022
1022
825
299
0
0
0
0
86
195
249
302
303
312
307
440
970
1022
1022
1022
1022
1022
815
290
0
0
0
0
79
187
234
287
291
297
297
427
957
1022
1022
1022
1022
1022
802
278
0
0
0
0
67
175
228
281
287
292
288
421
951
1022
1022
1022
1022
1022
799
272
0
0
0
0
60
169
224
272
279
284
280
414
944
1022
1022
1022
1022
1022
789
262
0
0
0
0
52
165
217
270
275
281
277
409
938
1022
1022
1022
1022
1022
788
263
0
0
0
0
57
165
214
267
272
279
275
408
942
1022
1022
1022
1022
1022
785
262
0
0
0
0
51
157
208
262
266
273
271
403
937
1022
1022
1022
1022
1022
782
255
0
0
0
0
45
155
208
260
268
272
267
403
939
1022
1022
1022
1022
1022
782
254
0
0
0
0
42
153
207
259
263
268
266
400
933
1022
1022
1022
1022
1022
779
253
0
0
0
0
43
151
204
260
265
271
267
401
935
1022
1022
1022
1022
1022
779
254
0
0
0
0
45
157
209
261
265
270
265
402
937
1022
1022
1022
1022
1022
779
253
0
0
0
0
46
156
208
262
266
274
270
405
939
1022
1022
1022
1022
1022
776
252
0
0
0
0
46
154
207
260
261
272
272
407
938
1022
1022
1022
1022
1022
775
248
0
0
0
0
44
152
203
255
262
269
264
399
934
1022
1022
1022
1022
1022
778
252
0
0
0
0
45
153
204
257
262
268
265
403
933
1022
1022
1022
1023
1022
771
249
0
0
0
0
47
156
211
263
267
269
269
407
938
1022
1022
1022
1022
1022
775
252
0
0
0
0
49
157
208
261
264
272
271
409
936
1022
1022
1022
1022
1022
776
252
0
0
0
0
45
155
213
264
266
273
271
405
933
1022
1022
1022
1022
1022
774
249
0
0
0
0
49
157
207
258
266
273
270
407
939
1022
1022
1022
1022
1022
770
248
0
0
0
0
50
157
202
256
262
271
268
402
932
1022
1022
1022
1022
1022
772
249
0
0
0
0
45
155
208
260
263
271
267
404
939
1022
1022
1022
1022
1022
779
253
0
0
0
0
46
153
208
259
264
271
268
408
944
1022
1022
1022
1022
1022
777
244
0
0
0
0
45
157
212
263
268
272
270
407
939
1022
1022
1022
1022
1022
776
245
0
0
0
0
49
158
207
259
264
271
268
411
943
1022
1022
1022
1022
1022
775
247
0
0
0
0
43
152
204
253
262
267
264
406
944
1022
1022
1022
1022
1022
775
245
0
0
0
0
42
152
204
262
263
269
268
407
947
1022
1022
1022
1022
1022
775
239
0
0
0
0
41
151
210
260
265
271
266
408
947
1022
1022
1022
1022
1022
783
251
0
0
0
0
45
153
205
258
263
268
265
404
944
1022
1022
1022
1022
1022
781
247
0
0
0
0
44
151
204
255
260
267
263
407
948
1022
1022
1022
1022
1022
780
244
0
0
0
0
39
147
204
255
265
269
268
411
949
1022
1022
1022
1022
1022
777
244
0
0
0
0
41
153
204
256
263
268
267
412
952
1022
1022
1022
1022
1022
783
252
0
0
0
0
48
158
214
265
267
276
271
415
954
1022
1022
1022
1022
1022
779
246
0
0
0
0
44
155
213
266
269
273
271
415
956
1022
1022
1022
1022
1022
778
248
0
0
0
0
47
155
211
258
265
269
269
413
947
1022
1022
1022
1022
1022
777
246
0
0
0
0
42
153
209
259
266
272
265
411
946
1022
1022
1022
1022
1022
775
243
0
0
0
0
47
156
210
263
263
271
270
412
951
1022
1022
1022
1022
1022
773
243
0
0
0
0
47
156
211
263
265
272
269
412
948
1022
1022
1022
1022
1022
780
246
0
0
0
0
46
157
211
262
269
270
267
414
945
1022
1022
1022
1022
1022
780
250
0
0
0
0
48
158
212
263
267
270
267
409
948
1022
1022
1022
1022
1022
775
248
0
0
0
0
48
157
209
259
268
273
272
414
953
1022
1022
1022
1022
1022
777
245
0
0
0
0
49
155
205
260
267
274
270
410
944
1022
1022
1022
1022
1022
775
243
0
0
0
0
49
158
211
260
270
276
273
417
953
1022
1022
1022
1022
1022
774
242
0
0
0
0
47
159
207
260
265
270
270
416
951
1022
1022
1022
1022
1022
776
246
0
0
0
0
56
163
210
262
268
272
270
417
951
1022
1022
1022
1022
1022
775
242
0
0
0
0
45
156
211
263
265
271
271
412
946
1022
1022
1022
1022
1022
776
247
0
0
0
0
49
159
211
262
267
271
271
416
951
1022
1022
1022
1022
1022
771
244
0
0
0
0
51
159
214
266
270
275
273
417
955
1022
1022
1022
1022
1022
773
244
0
0
0
0
49
157
213
266
270
275
274
415
948
1022
1022
1022
1022
1022
770
240
0
0
0
0
52
163
217
266
267
271
269
412
947
1022
1022
1022
1022
1022
770
243
0
0
0
0
47
157
212
262
266
271
268
413
946
1022
1022
1022
1022
1022
778
248
0
0
0
0
49
158
216
265
267
274
271
417
955
1022
1022
1022
1022
1022
772
244
0
0
0
0
51
159
215
269
273
280
276
421
955
1022
1022
1022
1022
1022
769
244
0
0
0
0
51
162
210
258
266
272
268
419
953
1022
1022
1022
1022
1022
771
243
0
0
0
0
56
163
215
265
265
275
276
424
959
1022
1022
1022
1022
1022
766
242
0
0
0
0
50
155
210
263
264
271
272
418
952
1022
1022
1022
1022
1022
773
243
0
0
0
0
57
163
211
263
268
271
270
422
956
1022
1022
1022
1022
1022
769
241
0
0
0
0
52
159
213
263
266
270
269
421
953
1022
1022
1022
1022
1022
770
238
0
0
0
0
51
160
213
259
267
271
267
415
953
1022
1022
1022
1022
1022
766
238
0
0
0
0
53
160
212
264
270
275
273
419
958
1022
1022
1022
1022
1022
768
239
0
0
0
0
57
162
214
265
265
273
271
417
953
1022
1022
1022
1022
1022
768
240
0
0
0
0
52
161
216
265
273
279
274
419
955
1022
1023
1022
1022
1022
770
240
0
0
0
0
56
164
216
267
271
277
277
425
955
1022
1022
1022
1022
1022
763
238
0
0
0
0
56
162
214
267
268
275
274
425
960
1022
1022
1022
1022
1022
763
240
0
0
0
0
55
163
214
265
270
276
274
427
960
1022
1022
1022
1022
1022
765
236
0
0
0
0
61
164
212
263
268
272
270
422
958
1022
1022
1022
1022
1022
761
234
0
0
0
0
56
163
219
269
275
279
275
428
962
1022
1022
1022
1022
1022
759
234
0
0
0
0
57
164
215
270
271
277
275
428
961
1022
1022
1022
1022
1022
764
239
0
0
0
0
57
164
211
263
270
273
271
422
960
1022
1022
1022
1022
1022
763
232
0
0
0
0
56
161
211
262
267
271
268
424
960
1022
1022
1022
1022
1022
760
230
0
0
0
0
55
160
207
259
263
272
272
425
960
1022
1022
1022
1022
1022
760
231
0
0
0
0
56
163
214
267
268
271
270
422
962
1022
1022
1022
1022
1022
754
229
0
0
0
0
52
159
212
260
267
270
268
425
969
1022
1022
1022
1022
1022
751
225
0
0
0
0
55
161
211
265
267
270
270
429
964
1022
1022
1022
1022
1022
755
226
0
0
0
0
56
163
217
261
270
276
273
432
968
1022
1022
1022
1022
1022
757
227
0
0
0
0
59
162
211
264
269
273
271
428
966
1022
1022
1022
1022
1022
755
227
0
0
0
0
56
164
212
261
269
273
269
425
966
1022
1022
1022
1022
1022
757
225
0
0
0
0
52
159
213
267
271
275
272
432
966
1022
1022
1022
1022
1022
760
233
0
0
0
0
55
160
209
263
267
273
269
426
968
1022
1022
1022
1022
1022
755
224
0
0
0
0
60
165
216
267
271
275
271
432
975
1022
1022
1022
1022
1022
752
223
0
0
0
0
59
166
216
267
268
276
273
432
972
1022
1022
1022
1022
1022
755
225
0
0
0
0
54
158
210
265
269
275
272
431
974
1022
1022
1022
1022
1022
756
224
0
0
0
0
56
163
214
265
269
274
271
433
971
1022
1022
1022
1022
1022
756
225
0
0
0
0
58
164
216
267
268
273
271
432
973
1022
1022
1022
1022
1022
753
223
0
0
0
0
54
159
214
263
265
274
272
435
972
1022
1022
1022
1022
1022
754
224
0
0
0
0
56
161
212
263
267
272
270
433
972
1022
1022
1022
1022
1022
752
221
0
0
0
0
61
166
211
264
269
275
272
437
976
1022
1023
1022
1022
1022
750
219
0
0
0
0
57
159
215
269
271
279
276
437
979
1022
1022
1022
1022
1022
747
219
0
0
0
0
60
163
215
266
270
276
272
436
971
1022
1022
1022
1022
1022
749
221
0
0
0
0
60
165
218
267
266
275
274
440
979
1022
1022
1022
1022
1022
751
218
0
0
0
0
61
162
214
268
267
272
271
434
972
1022
1022
1022
1022
1022
750
220
0
0
0
0
60
163
215
265
265
272
272
439
979
1022
1022
1022
1022
1022
747
220
0
0
0
0
58
163
219
270
273
276
270
435
976
1022
1022
1022
1022
1022
746
219
0
0
0
0
60
162
215
265
270
276
272
437
977
1022
1022
1022
1022
1022
736
209
0
0
0
0
56
159
207
261
265
269
267
437
976
1022
1022
1022
1022
1022
741
216
0
0
0
0
64
166
213
262
265
275
271
441
981
1022
1022
1022
1022
1022
741
212
0
0
0
0
60
163
215
265
269
273
270
439
981
1022
1022
1022
1022
1022
740
209
0
0
0
0
64
165
215
265
271
274
272
445
986
1022
1022
1022
1022
1022
740
211
0
0
0
0
60
167
214
263
267
274
271
441
979
1022
1022
1022
1022
1022
739
215
0
0
0
0
64
166
217
268
270
274
272
443
984
1022
1022
1022
1022
1022
740
214
0
0
0
0
62
167
216
264
268
273
268
440
979
1022
1022
1022
1022
1022
739
211
0
0
0
0
59
162
215
265
269
272
269
444
985
1022
1022
1022
1022
1022
744
214
0
0
0
0
60
161
212
264
267
272
267
444
984
1022
1022
1022
1022
1022
734
206
0
0
0
0
63
163
217
266
268
272
268
444
982
1022
1022
1022
1022
1022
741
211
0
0
0
0
62
167
218
266
269
274
273
448
991
1022
1022
1022
1022
1022
741
213
0
0
0
0
63
165
210
260
262
268
268
447
988
1022
1022
1022
1022
1022
739
207
0
0
0
0
57
163
214
263
268
274
271
449
994
1022
1022
1022
1022
1022
739
205
0
0
0
0
59
161
212
265
266
273
270
452
996
1022
1022
1022
1022
1022
733
203
0
0
0
0
61
163
214
265
268
271
268
450
994
1022
1022
1022
1022
1022
738
207
0
0
0
0
64
164
210
259
259
268
267
448
997
1022
1022
1022
1023
1022
734
200
0
0
0
0
60
163
211
259
263
270
268
449
999
1022
1022
1022
1022
1022
730
193
0
0
0
0
59
159
210
258
264
271
268
455
1002
1022
1022
1022
1022
1022
729
192
0
0
0
0
62
161
207
258
261
267
263
450
1000
1022
1022
1022
1022
1022
736
195
0
0
0
0
53
158
209
257
263
270
267
453
1005
1022
1022
1022
1022
1022
729
188
0
0
0
0
57
159
207
256
261
267
263
454
1005
1022
1022
1022
1022
1022
731
189
0
0
0
0
54
157
209
257
262
265
263
453
1008
1022
1022
1022
1022
1022
728
183
0
0
0
0
50
155
206
255
260
264
263
461
1014
1022
1022
1022
1022
1022
729
188
0
0
0
0
57
158
211
259
257
263
261
460
1016
1022
1022
1022
1022
1022
727
180
0
0
0
0
52
158
210
262
265
267
264
463
1017
1022
1023
1022
1022
1022
723
169
0
0
0
0
42
148
203
255
259
265
263
461
1018
1022
1022
1022
1022
1022
722
166
0
0
0
0
44
150
198
248
251
258
256
459
1018
1022
1022
1022
1022
1022
726
169
0
0
0
0
43
148
200
252
257
261
258
463
1020
1022
1022
1022
1022
1022
724
164
0
0
0
0
43
149
204
255
260
265
263
468
1021
1022
1022
1022
1022
1022
727
164
0
0
0
0
43
151
204
252
260
264
261
470
1021
1022
1022
1022
1022
1022
727
164
0
0
0
0
45
152
206
259
262
265
263
471
1021
1022
1022
1022
1022
1022
728
163
0
0
0
0
39
147
202
254
255
262
260
466
1021
1022
1022
1022
1022
1022
720
158
0
0
0
0
40
148
204
255
260
263
260
473
1022
1022
1022
1022
1022
1022
722
155
0
0
0
0
44
151
205
256
262
268
263
474
1022
1022
1022
1022
1022
1022
718
155
0
0
0
0
44
150
203
258
260
266
262
472
1022
1022
1022
1022
1022
1022
724
161
0
0
0
0
46
149
198
251
254
261
258
470
1021
1022
1022
1022
1022
1022
718
153
0
0
0
0
40
148
201
252
257
263
260
472
1022
1022
1022
1022
1022
1022
716
150
0
0
0
0
41
146
200
252
256
263
259
475
1022
1022
1022
1022
1022
1022
718
150
0
0
0
0
40
147
204
256
257
264
261
476
1022
1022
1022
1022
1022
1022
720
155
0
0
0
0
45
153
207
259
261
265
261
477
1022
1022
1022
1022
1023
1023
712
150
0
0
0
0
42
148
202
254
254
259
258
474
1022
1022
1022
1022
1022
1022
716
155
0
0
0
0
47
153
203
253
262
269
265
483
1022
1022
1022
1022
1022
1022
711
147
0
0
0
0
50
154
209
259
265
270
269
488
1022
1022
1022
1022
1022
1022
724
165
0
0
0
0
70
179
231
282
287
294
291
511
1022
1022
1022
1022
1022
1022
729
182
0
0
0
0
80
184
233
284
287
291
284
495
1021
1022
1022
1022
1022
1022
722
193
0
0
0
0
142
249
307
360
361
360
349
537
1021
1022
1022
1022
1022
1022
724
231
0
0
0
0
138
227
268
300
295
293
286
467
941
1022
1022
1022
1022
964
518
33
0
0
0
0
0
23
69
109
96
91
92
287
755
1022
1022
1022
1022
1000
611
207
0
0
0
0
102
162
184
203
198
187
178
334
750
1022
1022
1022
1022
837
488
115
0
0
0
0
114
193
235
274
271
270
263
408
797
1022
1022
1022
1022
946
612
242
0
0
0
0
24
39
15
0
0
0
0
137
563
907
1022
1022
1022
916
616
278
0
0
0
160
285
354
393
436
444
447
441
587
975
1022
1022
1022
1022
1022
757
378
7
0
0
152
265
325
344
361
346
339
327
473
865
1022
1022
1022
1022
959
614
234
0
0
0
29
153
225
262
295
297
302
301
461
869
1022
1022
1022
1022
1021
667
284
0
0
0
104
235
311
351
392
399
407
409
572
976
1022
1022
1022
1022
1022
760
372
0
0
0
166
291
357
387
412
412
413
411
563
967
1022
1022
1022
1022
1022
735
342
0
0
0
133
255
321
347
382
380
381
376
533
943
1022
1022
1022
1022
1022
699
307
0
0
0
102
223
292
322
357
359
366
367
524
940
1022
1022
1022
1022
1022
712
317
0
0
0
108
230
295
322
355
355
355
350
508
921
1022
1022
1022
1022
1022
686
289
0
0
0
87
213
285
314
347
347
348
341
500
920
1022
1022
1022
1022
1022
673
270
0
0
0
75
203
271
304
337
338
341
338
501
931
1022
1022
1022
1022
1022
707
296
0
0
0
83
212
286
320
355
355
357
352
521
952
1022
1022
1022
1023
1022
706
294
0
0
0
75
205
277
311
346
344
344
340
505
940
1022
1022
1022
1022
1022
684
261
0
0
0
35
164
238
276
311
309
309
306
479
923
1022
1022
1022
1022
1022
657
216
0
0
0
0
128
209
248
286
283
285
281
465
944
1022
1022
1022
1022
1022
655
174
0
0
0
0
79
164
205
241
243
243
239
440
960
1022
1022
1022
1022
1022
696
230
0
0
0
69
239
349
405
446
445
448
446
644
1022
1022
1022
1022
1022
1022
796
289
0
0
0
0
128
208
247
285
286
291
296
498
1011
1022
1022
1022
1022
1023
786
312
0
0
0
107
265
358
410
452
455
459
457
639
1022
1022
1022
1022
1022
1022
759
299
0
0
0
0
127
192
221
245
232
224
215
378
799
1022
1022
1022
1022
918
548
147
0
0
0
0
54
121
159
192
196
196
191
345
746
1022
1022
1022
1022
868
519
134
0
0
0
0
43
125
170
219
231
243
248
399
791
1022
1022
1022
1022
939
607
247
0
0
0
66
178
238
264
285
272
271
268
411
777
1022
1022
1022
1022
900
579
228
0
0
0
61
180
243
281
313
316
320
321
458
822
1022
1022
1022
1022
945
632
291
0
0
0
105
210
271
298
327
328
334
354
609
1022
1022
912
507
292
214
245
539
971
1022
1022
1022
1022
890
793
722
686
666
661
653
318
0
0
0
0
0
15
483
959
1022
1022
1022
915
788
711
655
632
614
599
504
86
0
0
0
0
0
72
602
1022
1023
1022
881
700
579
518
459
440
427
419
220
0
0
0
0
0
0
79
603
1022
1022
1022
883
719
627
588
545
549
557
573
395
0
0
0
0
0
0
231
737
1022
1023
1022
906
709
595
535
472
454
447
454
263
0
0
0
0
0
0
164
691
1022
1022
1022
915
746
665
643
618
639
660
688
506
11
0
0
0
0
0
451
964
1022
1022
1022
1022
1004
907
869
836
845
855
870
676
166
0
0
0
0
110
590
1022
1022
1022
1022
1022
1022
979
926
880
871
862
860
654
129
0
0
0
0
24
510
1011
1022
1023
1022
1022
988
883
836
792
794
796
800
598
76
0
0
0
0
0
474
984
1022
1022
1022
1022
994
894
854
807
809
808
815
612
78
0
0
0
0
0
493
1016
1022
1022
1022
1022
1022
938
889
832
830
831
839
623
56
0
0
0
0
0
432
984
1022
1022
1023
1022
1022
955
914
868
870
881
893
679
110
0
0
0
0
0
471
1005
1022
1022
1023
1022
922
799
739
685
684
685
696
487
0
0
0
0
0
0
469
1020
1022
1022
1023
1022
1022
999
953
905
898
888
883
659
96
0
0
0
0
0
429
947
1022
1022
1022
1022
851
715
628
547
507
471
443
211
0
0
0
0
0
0
0
467
953
1022
888
628
457
364
329
296
304
311
324
130
0
0
0
0
0
0
153
680
1022
1022
1022
892
725
633
603
575
588
608
639
462
0
0
0
0
0
36
531
1021
1022
1023
1023
1022
1022
966
926
883
880
879
880
673
150
0
0
0
0
59
528
1019
1022
1022
1023
1022
994
888
837
782
767
750
743
527
1
0
0
0
0
0
376
880
1022
1022
1022
1022
843
740
700
657
661
666
679
475
0
0
0
0
0
0
411
936
1022
1022
1022
1022
947
852
813
776
779
780
780
555
4
0
0
0
0
0
416
958
1022
1022
1022
1022
974
875
829
782
775
769
774
555
7
0
0
0
0
0
520
1022
1022
1022
1022
1022
1022
918
864
811
798
783
773
538
0
0
0
0
0
0
428
972
1022
1022
1022
1022
961
856
807
758
759
758
764
552
18
0
0
0
0
7
530
1022
1022
1022
1022
1022
989
878
819
761
742
721
699
469
0
0
0
0
0
0
304
796
1022
1022
1022
899
719
608
551
488
460
423
394
156
0
0
0
0
0
0
0
494
970
1022
894
641
474
381
351
327
344
363
389
203
0
0
0
0
0
0
315
841
1022
1022
1022
1022
908
829
805
783
801
818
840
657
166
0
0
0
0
181
652
1022
1022
1022
1022
1022
1022
1013
963
917
913
906
904
687
169
0
0
0
0
51
509
993
1022
1022
1022
1022
902
790
730
671
649
635
621
395
0
0
0
0
0
0
245
746
1022
1022
1022
863
682
582
543
512
529
548
571
380
0
0
0
0
0
0
446
961
1022
1022
1022
1022
936
842
815
801
812
816
812
589
43
0
0
0
0
0
463
998
1022
1022
1022
1022
989
894
846
769
746
774
811
593
31
0
0
0
0
55
595
1022
1022
1022
1023
1022
1022
1022
1022
1022
1022
1022
1022
917
301
0
0
0
0
209
735
1022
1022
1023
1022
1022
988
839
760
685
671
663
667
426
0
0
0
0
0
0
275
871
1022
1022
1022
1022
922
824
787
752
768
782
804
585
23
0
0
0
0
0
461
989
1022
1023
1023
1022
816
680
607
536
505
473
457
224
0
0
0
0
0
0
55
552
1019
1022
925
663
483
379
328
279
283
284
285
59
0
0
0
0
0
0
0
544
1022
1022
1020
758
590
500
474
455
486
512
539
333
0
0
0
0
0
0
342
874
1022
1022
1022
1022
898
807
771
734
739
743
751
535
10
0
0
0
0
0
468
987
1022
1022
1022
1022
957
856
810
770
771
768
772
546
11
0
0
0
0
0
446
959
1022
1022
1022
1022
932
835
790
750
755
758
760
537
6
0
0
0
0
0
421
942
1022
1022
1022
1022
906
809
760
710
700
687
682
448
0
0
0
0
0
0
367
906
1022
1022
1022
1022
886
793
762
748
775
797
818
596
48
0
0
0
0
0
506
1020
1022
1022
1022
1022
978
874
824
781
783
785
792
559
5
0
0
0
0
0
423
958
1022
1022
1022
1022
922
822
777
734
735
740
747
524
0
0
0
0
0
0
424
937
1022
1022
1022
1022
842
726
660
600
584
562
541
300
0
0
0
0
0
0
153
657
1022
1022
996
714
534
436
394
359
367
368
378
158
0
0
0
0
0
0
113
624
1022
1022
1022
801
646
572
549
528
547
563
583
382
0
0
0
0
0
0
471
993
1022
1022
1022
1022
1022
964
926
891
892
891
896
678
170
0
0
0
0
158
639
1022
1022
1022
1022
1022
1022
1008
955
905
896
886
881
652
127
0
0
0
0
48
528
1015
1022
1022
1022
1022
920
807
748
696
688
686
687
457
0
0
0
0
0
0
327
825
1022
1022
1022
902
707
593
542
501
510
524
547
335
0
0
0
0
0
0
339
890
1022
1022
1022
1022
974
899
887
875
897
905
924
696
114
0
0
0
0
35
602
1022
1022
1022
1023
1022
1022
982
918
860
857
855
860
603
19
0
0
0
0
88
647
1022
1022
1022
1022
1022
1022
1022
976
891
856
826
807
539
0
0
0
0
0
0
370
947
1022
1022
1022
1022
946
844
799
764
776
790
812
580
23
0
0
0
0
0
479
999
1022
1022
1022
1021
820
711
657
609
598
585
581
336
0
0
0
0
0
0
264
774
1022
1023
1022
835
646
538
489
443
433
412
388
115
0
0
0
0
0
0
0
413
908
1022
817
560
386
296
256
223
231
249
274
65
0
0
0
0
0
0
221
771
1022
1022
1022
1022
892
819
799
784
803
824
845
637
133
0
0
0
0
181
672
1022
1022
1022
1022
1022
1022
1022
1000
959
959
962
965
732
207
0
0
0
0
160
643
1022
1022
1022
1022
1022
1019
888
820
759
741
725
713
469
0
0
0
0
0
0
318
822
1022
1022
1022
870
679
568
519
477
496
528
572
364
0
0
0
0
0
0
435
978
1022
1022
1022
1022
1022
925
873
836
840
845
855
617
67
0
0
0
0
31
543
1022
1022
1022
1022
1022
960
846
787
728
721
718
719
473
0
0
0
0
0
0
436
968
1022
1022
1023
1022
907
804
758
714
719
729
745
509
0
0
0
0
0
0
469
976
1022
1022
1022
1022
846
736
670
609
583
550
514
240
0
0
0
0
0
0
12
532
1005
1022
897
647
474
377
334
294
297
301
313
87
0
0
0
0
0
0
249
785
1022
1022
1022
972
810
721
679
638
636
636
643
414
0
0
0
0
0
0
482
1009
1022
1022
1023
1022
1022
969
931
897
903
909
916
686
171
0
0
0
0
164
643
1022
1022
1022
1022
1022
1022
995
950
910
911
911
912
673
148
0
0
0
0
142
627
1022
1022
1022
1022
1022
1022
943
891
839
831
823
816
563
20
0
0
0
0
0
455
963
1022
1022
1022
1019
787
652
579
524
525
527
539
302
0
0
0
0
0
0
282
800
1022
1022
1022
958
801
728
698
674
697
722
758
543
8
0
0
0
0
99
627
1022
1022
1022
1022
1022
1022
1004
959
909
907
912
916
646
57
0
0
0
0
6
569
1022
1022
1022
1023
1022
1022
1022
1022
1022
1022
1022
1022
919
287
0
0
0
0
136
675
1022
1022
1022
1022
1022
1022
888
819
761
750
734
721
429
0
0
0
0
0
0
354
943
1022
1022
1022
1022
886
779
728
687
688
688
686
409
0
0
0
0
0
0
384
938
1022
1022
1022
1021
811
695
633
570
544
517
492
205
0
0
0
0
0
0
40
549
1015
1022
865
599
415
313
265
223
228
231
244
3
0
0
0
0
0
0
0
495
991
1022
878
625
463
384
364
360
396
430
460
230
0
0
0
0
0
0
297
822
1022
1022
1022
964
812
736
