0
0
0
399
85
707
535
354
0
0
0
0
0
669
1022
1022
1022
1022
1022
476
0
0
0
723
503
1022
1009
713
0
0
0
0
0
643
1022
1022
1022
1022
1022
118
0
0
0
588
331
1022
925
808
0
0
0
0
0
1002
1022
1022
1022
1023
1023
486
0
0
0
420
246
948
737
615
0
0
0
0
0
618
1023
1022
1022
1022
1022
377
0
0
0
536
288
982
745
472
0
0
0
0
0
971
1022
1022
1022
1022
1023
332
0
0
0
267
0
742
605
315
0
0
0
0
0
1022
1022
1022
1022
1022
1022
323
0
0
0
287
72
926
709
653
0
0
0
0
0
1022
1022
1022
1022
1022
1022
169
0
0
0
641
352
1008
817
596
0
0
0
0
0
1022
1022
1022
1022
1023
1022
547
0
0
0
620
293
877
608
339
0
0
0
0
0
845
1023
1022
1022
1022
1022
67
0
0
0
523
258
986
805
635
0
0
0
0
0
1022
1022
1022
1022
1022
1022
493
0
0
0
485
108
878
696
583
0
0
0
0
0
1016
1022
1022
1022
1022
1022
45
0
0
0
531
207
976
751
550
0
0
0
0
0
939
1022
1022
1022
1022
1023
46
0
0
0
496
204
859
675
528
0
0
0
0
0
1022
1022
1022
1022
1022
1022
14
0
0
0
358
50
776
553
459
0
0
0
0
0
1022
1023
1022
1022
1022
1022
88
0
0
0
608
339
1012
755
651
0
0
0
0
0
1022
1022
1022
1022
1022
1022
0
0
0
0
439
193
906
719
592
0
0
0
0
0
1022
1022
1022
1022
1022
1022
20
0
0
0
502
232
938
709
570
0
0
0
0
0
1022
1022
1022
1022
1022
1022
195
0
0
102
611
293
964
685
563
0
0
0
0
0
1022
1022
1022
1022
1022
1022
0
0
0
0
369
151
907
691
563
0
0
0
0
0
1022
1022
1022
1022
1022
1022
0
0
0
0
494
243
970
696
528
0
0
0
0
0
1022
1023
1022
1022
1022
1022
0
0
0
0
554
279
1022
742
604
0
0
0
0
0
1022
1022
1022
1022
1022
1023
0
0
0
0
436
177
881
685
538
0
0
0
0
0
1022
1022
1022
1022
1022
1022
0
0
0
0
450
199
948
721
572
0
0
0
0
0
1022
1022
1022
1022
1022
1022
0
0
0
0
461
203
919
716
543
0
0
0
0
0
1022
1022
1022
1022
1022
1022
0
0
0
0
450
229
950
715
587
0
0
0
0
0
1022
1022
1022
1022
1022
1022
0
0
0
0
539
335
985
691
601
0
0
0
0
0
1022
1022
1022
1022
1022
1022
16
0
0
0
443
144
839
560
444
0
0
0
0
0
1022
1023
1022
1022
1022
1023
0
0
0
0
498
279
957
679
547
0
0
0
0
0
1022
1023
1022
1022
1022
1022
0
0
0
0
466
241
932
690
568
0
0
0
0
0
1022
1022
1022
1022
1022
1022
0
0
0
0
500
254
975
711
524
0
0
0
0
0
1022
1022
1022
1022
1022
1022
0
0
0
99
500
263
937
688
578
0
0
0
0
0
1022
1022
1022
1022
1023
1023
0
0
0
0
450
249
943
701
591
0
0
0
0
0
1023
1022
1022
1022
1022
1022
0
0
0
72
486
262
940
678
535
0
0
0
0
0
1022
1022
1022
1022
1022
1023
0
0
0
0
417
211
916
661
579
0
0
0
0
0
1022
1023
1022
1022
1022
1022
0
0
0
221
536
352
1001
777
547
0
0
0
0
0
1022
1022
1022
1022
1022
1022
0
0
0
0
445
276
949
735
624
0
0
0
0
0
1022
1022
1022
1022
1022
1022
0
0
0
40
496
291
970
721
574
0
0
0
0
0
1023
1022
1022
1022
1022
1022
0
0
0
47
492
279
971
679
503
0
0
0
0
0
1022
1022
1022
1022
1022
1022
0
0
0
98
496
291
996
739
662
0
0
0
0
0
1022
1022
1022
1022
1022
1022
0
0
0
0
414
289
954
680
602
0
0
0
0
0
1014
1022
1022
1022
1022
1022
0
0
0
112
557
501
1022
822
709
0
0
0
0
0
1022
1022
1022
1022
1022
1022
0
0
0
236
575
419
1022
771
655
0
0
0
0
0
1022
1022
1022
1022
1022
1022
0
0
0
0
415
351
1022
822
721
0
0
0
0
0
1022
1022
1022
1022
1022
1022
0
0
0
198
558
378
968
686
561
0
0
0
0
0
1022
1023
1022
1022
1022
1023
0
0
0
114
466
353
979
686
567
0
0
0
0
0
1023
1022
1022
1022
1023
1022
0
0
0
113
507
389
1018
736
585
0
0
0
0
0
1022
1022
1022
1022
1022
1022
0
0
0
164
521
402
998
697
611
0
0
0
0
0
1022
1022
1022
1022
1022
1022
0
0
0
198
504
407
998
720
611
0
0
0
0
0
1022
1022
1022
1022
1023
1022
0
0
0
198
135
393
1022
789
655
0
0
0
0
0
1022
1022
1022
1022
1022
1022
0
0
0
248
493
356
980
676
579
0
0
0
0
0
1022
1022
1022
1022
1022
1022
0
0
0
352
531
408
969
642
544
0
0
0
0
0
1022
1023
1022
1022
1023
1022
0
0
0
299
526
419
974
720
604
0
0
0
0
0
1022
1023
1022
1022
1022
1022
0
0
0
249
465
408
998
707
574
0
0
0
0
0
1022
1023
1022
1022
1022
1022
0
0
0
267
536
466
1022
738
636
0
0
0
0
0
1022
1023
1022
1022
1022
1022
0
0
0
196
453
412
956
666
590
0
0
0
0
0
1022
1022
1022
1022
1022
1022
0
0
0
237
485
449
963
707
591
0
0
0
0
0
1022
1022
1022
1022
1022
1022
0
0
0
252
491
454
987
689
558
0
0
0
0
0
1022
1022
1022
1022
1022
1022
0
0
0
270
452
472
1016
694
587
0
0
0
0
0
1023
1022
1022
1022
1022
1022
0
0
0
269
451
397
974
707
580
0
0
0
0
0
1022
1022
1022
1022
1023
1022
0
0
0
229
470
479
990
691
584
0
0
0
0
0
1023
1022
1022
1022
1022
1023
0
0
0
402
500
475
962
704
535
0
0
0
0
0
1022
1022
1022
1022
1023
1022
0
0
0
356
465
455
971
655
586
0
0
0
0
0
1022
1022
1022
1022
1022
1022
0
0
0
336
456
468
942
688
617
0
0
0
0
0
1023
1023
1022
1022
1022
1022
0
0
0
350
436
467
946
668
527
0
0
0
0
0
1022
1022
1022
1022
1022
1022
0
0
0
355
485
511
976
680
558
0
0
0
0
0
1022
1023
1022
1022
1022
1022
0
0
0
275
428
469
899
633
563
0
0
0
0
0
1022
1023
1022
1022
1022
1022
0
0
0
371
474
514
953
683
602
0
0
0
0
0
1022
1022
1022
1022
1022
1022
0
0
0
335
432
454
915
647
536
0
0
0
0
0
1022
1023
1022
1022
1022
1022
0
0
0
352
469
491
961
698
552
0
0
0
0
0
1022
1023
1022
1022
1022
1023
0
0
0
314
456
526
987
690
579
0
0
0
0
0
1022
1022
1022
1022
1022
1022
0
0
0
434
496
575
985
724
617
0
0
0
0
0
1022
1023
1022
1022
1022
1022
0
0
0
380
468
563
966
697
579
0
0
0
0
0
1022
1023
1022
1022
1022
1022
0
0
0
386
448
549
971
706
543
0
0
0
0
0
1022
1022
1022
1022
1022
1022
0
0
0
361
471
569
986
679
583
0
0
0
0
0
1022
1022
1022
1022
1022
1022
0
0
0
402
468
535
975
705
578
0
0
0
0
0
1023
1022
1022
1022
1022
1022
0
0
0
333
447
599
1018
695
594
0
0
0
0
0
1023
1022
1022
1022
1022
1022
0
0
0
425
449
585
976
691
562
0
0
0
0
0
1022
1022
1022
1022
1022
1022
0
0
0
408
412
583
955
704
550
0
0
0
0
0
1022
1022
1022
1022
1022
1022
0
0
0
434
456
620
978
726
622
0
0
0
0
0
1022
1022
1022
1022
1022
1022
0
0
0
423
445
607
960
675
544
0
0
0
0
0
1022
1022
1022
1022
1022
1022
0
0
0
380
425
596
978
687
587
0
0
0
0
0
1023
1022
1022
1022
1022
1022
0
0
0
461
473
647
1001
668
558
0
0
0
0
0
1023
1022
1022
1022
1022
1022
0
0
0
502
383
574
920
650
523
0
0
0
0
0
1023
1022
1022
1022
1022
1023
0
0
0
332
364
574
908
708
573
0
0
0
0
0
1022
1022
1022
1022
1022
1023
0
0
0
427
384
604
904
642
525
0
0
0
0
0
1022
1023
1022
1022
1022
1022
0
0
0
410
463
659
942
700
551
0
0
0
0
0
1022
1023
1022
1022
1022
1022
0
0
0
433
380
567
900
691
544
0
0
0
0
0
1022
1022
1022
1022
1022
1022
0
0
0
419
390
616
878
572
447
0
0
0
0
0
1023
1022
1022
1022
1022
1022
0
0
0
335
343
686
883
614
483
0
0
0
0
0
1022
1023
1022
1022
1022
1022
0
0
0
371
376
626
907
673
585
0
0
0
0
0
1022
1023
1022
1022
1022
1022
0
0
0
465
406
695
1018
719
536
0
0
0
0
0
1022
1023
1022
1022
1022
1022
0
0
0
352
344
602
872
611
460
0
0
0
0
0
1022
1023
1022
1022
1022
1022
0
0
0
451
366
603
871
630
506
0
0
0
0
0
1022
1022
1022
1022
1022
1022
0
0
0
461
395
685
914
693
500
0
0
0
0
0
1022
1023
1022
1022
1022
1022
0
0
0
470
404
748
942
618
504
0
0
0
0
0
1022
1023
1022
1022
1022
1022
0
0
0
277
99
425
769
396
157
0
0
0
0
0
1023
1022
1022
1022
1022
1022
0
0
0
262
365
661
876
579
469
0
0
0
0
0
1022
1022
1022
1022
1023
1023
0
0
0
413
408
699
895
655
504
0
0
0
0
0
1022
1022
1022
1022
1023
1022
0
0
0
378
334
617
848
617
432
0
0
0
0
0
1023
1022
1022
1022
1022
1022
0
0
0
393
381
679
892
664
466
0
0
0
0
0
1022
1023
1022
1022
1022
1022
0
0
0
417
363
667
863
632
450
0
0
0
0
0
1022
1022
1022
1022
1022
1022
0
0
0
484
335
764
780
395
0
0
0
0
0
0
1022
1022
1022
1022
1022
1022
0
0
0
498
340
713
839
627
392
0
0
0
0
0
1022
1023
1022
1022
1022
1022
0
0
0
472
389
660
767
467
288
0
0
0
0
0
1023
1022
1022
1022
1022
1022
0
0
0
426
291
647
798
559
451
0
0
0
0
601
1022
1022
1022
1022
1023
1022
0
0
0
400
220
632
818
548
257
0
0
0
0
12
1023
1022
1022
1022
1023
1022
0
0
0
432
269
632
767
550
343
0
0
0
0
6
1022
1023
1022
1022
1022
1022
0
0
0
392
289
683
812
594
368
0
0
0
0
32
1022
1023
1022
1022
1022
1022
0
0
0
384
311
670
835
602
408
0
0
0
0
148
1022
1022
1022
1022
1022
1022
0
0
0
411
278
697
844
608
395
0
0
0
0
294
1022
1022
1022
1022
1022
1022
0
0
0
455
326
839
934
658
279
0
0
0
0
0
1023
1022
1022
1022
1022
1022
0
0
0
435
436
860
1021
761
451
0
0
0
0
42
1022
1022
1022
1022
1022
1022
0
0
0
445
327
706
849
629
304
0
0
0
0
117
1023
1022
1022
1022
1022
1022
0
0
0
407
295
658
813
606
345
0
0
0
0
332
1023
1022
1022
1022
1022
1022
0
0
0
455
276
684
802
592
289
0
0
0
0
343
1022
1022
1022
1022
1022
1023
0
0
0
499
255
655
790
587
285
0
0
0
0
321
1022
1022
1023
1022
1022
1022
0
0
0
466
300
687
806
600
240
0
0
0
0
308
1022
1022
1022
1022
1022
1022
0
0
0
405
265
652
793
587
259
0
0
0
0
320
1022
1023
1022
1022
1022
1022
0
0
0
403
271
696
799
592
257
0
0
0
0
288
1022
1022
1022
1022
1022
1022
0
0
0
392
274
701
815
583
240
0
0
0
0
300
1022
1022
1022
1022
1022
1022
0
0
0
413
287
689
835
625
241
0
0
0
0
373
1023
1022
1022
1022
1022
1022
0
0
0
417
302
721
796
588
230
0
0
0
0
385
1023
1022
1022
1022
1022
1022
0
0
0
429
265
703
791
613
185
0
0
0
0
351
1022
1022
1022
1022
1022
1022
0
0
0
412
259
697
794
572
188
0
0
0
0
344
1022
1022
1022
1022
1022
1022
0
0
0
432
252
645
733
559
189
0
0
0
0
354
1022
1023
1022
1022
1022
1022
0
0
0
361
157
615
651
487
84
0
0
0
0
125
1022
1023
1022
1022
1022
1022
0
0
0
569
347
803
816
678
305
0
0
0
0
604
1022
1022
1022
1022
1022
1022
0
0
0
607
376
730
798
579
117
0
0
0
0
753
1022
1022
1022
1022
1022
1022
0
0
0
394
169
681
734
544
158
0
0
0
0
721
1022
1022
1023
1022
1022
1022
0
0
0
383
214
715
743
594
181
0
0
0
0
799
1022
1023
1022
1022
1022
1022
0
0
0
0
0
352
799
693
95
0
0
0
0
334
1022
1023
1022
1022
1022
1022
0
0
0
548
395
852
913
755
199
0
0
0
0
721
1022
1022
1023
1022
1022
1022
0
0
0
399
184
626
664
489
0
0
0
0
0
572
1022
1022
1022
1022
1022
1022
0
0
0
311
147
638
743
549
114
0
0
0
0
718
1022
1022
1022
1022
1022
1022
0
0
0
418
226
664
736
564
111
0
0
0
0
953
1022
1022
1022
1022
1022
1022
0
0
0
415
102
525
572
395
0
0
0
0
0
859
1022
1022
1022
1022
1022
1022
0
0
0
361
115
577
639
491
3
0
0
0
0
761
1022
1022
1022
1022
1022
1022
0
0
0
442
257
737
763
639
116
0
0
0
0
748
1022
1022
1022
1022
1022
1022
0
0
0
424
211
756
756
606
85
0
0
0
0
860
1022
1022
1022
1022
1022
1022
0
0
0
365
159
627
641
447
0
0
0
0
0
648
1022
1022
1022
1022
1022
1022
0
0
0
355
159
668
704
529
5
0
0
0
0
753
1022
1022
1022
1022
1022
1022
0
0
0
476
287
745
769
599
28
0
0
0
0
839
1022
1022
1022
1022
1022
1022
0
0
0
376
178
698
717
559
17
0
0
0
0
858
1022
1022
1022
1022
1022
1022
0
0
0
356
194
683
714
521
0
0
0
0
0
696
1022
1022
1022
1022
1022
1022
0
0
0
354
166
714
736
531
0
0
0
0
0
907
1022
1022
1022
1022
1022
1022
0
0
0
457
146
661
680
526
0
0
0
0
0
776
1022
1022
1022
1022
1022
1022
0
0
0
454
198
692
693
598
0
0
0
0
0
818
1022
1022
1022
1022
1022
1022
0
0
0
272
149
669
696
496
0
0
0
0
0
762
1022
1022
1022
1022
1022
1022
0
0
0
304
195
705
724
561
0
0
0
0
0
806
1022
1022
1022
1022
1022
1022
0
0
0
407
219
739
758
684
93
0
0
0
0
1022
1022
1022
1022
1022
1022
423
0
0
0
0
8
659
803
768
255
0
0
0
0
1022
1022
1022
1022
1022
1022
1022
0
0
0
288
1
430
491
353
0
0
0
0
0
1011
1023
1022
1022
1022
1022
1022
0
0
0
136
0
548
718
585
0
0
0
0
0
1022
1023
1022
1022
1022
1022
1021
0
0
0
339
151
681
695
673
246
0
0
0
0
903
1022
1022
1022
1022
1022
1022
0
0
0
314
50
482
780
734
166
0
0
0
0
722
1022
1022
1022
1022
1022
1022
0
0
0
284
277
862
791
541
0
0
0
0
0
582
1022
1022
1022
1022
1022
885
0
0
0
448
236
752
665
446
0
0
0
0
0
883
1022
1022
1022
1022
1022
996
0
0
0
412
120
705
709
564
0
0
0
0
0
1009
1022
1022
1022
1022
1022
908
0
0
0
421
203
768
752
556
0
0
0
0
0
927
1022
1022
1022
1022
1022
801
0
0
0
414
231
776
754
600
0
0
0
0
0
1022
1023
1022
1022
1022
1022
1022
0
0
0
411
155
665
634
445
0
0
0
0
0
866
1022
1022
1022
1022
1022
1022
0
0
0
0
0
968
1022
877
163
0
0
0
0
1022
1023
1022
1022
1022
1022
807
0
0
0
503
280
819
798
595
0
0
0
0
0
798
1022
1022
1022
1022
1022
912
0
0
0
370
143
706
702
562
0
0
0
0
0
1022
1022
1022
1022
1022
1022
1022
0
0
0
360
139
671
591
479
0
0
0
0
0
924
1022
1022
1022
1022
1022
664
0
0
0
350
193
802
774
704
0
0
0
0
0
1022
1022
1023
1022
1022
1022
751
0
0
0
361
184
847
775
575
0
0
0
0
0
1000
1023
1022
1022
1022
1022
786
0
0
0
394
145
760
721
561
0
0
0
0
0
1020
1022
1022
1022
1022
1022
744
0
0
0
462
161
748
703
555
0
0
0
0
0
958
1022
1022
1022
1022
1022
596
0
0
0
385
156
771
726
553
0
0
0
0
0
1019
1022
1023
1022
1022
1022
629
0
0
0
399
167
768
726
583
0
0
0
0
0
1022
1022
1022
1022
1022
1022
732
0
0
0
415
123
748
729
528
0
0
0
0
0
1021
1022
1022
1022
1022
1022
670
0
0
0
407
184
787
728
581
0
0
0
0
0
1019
1022
1023
1022
1022
1022
651
0
0
0
431
176
793
722
553
0
0
0
0
0
987
1022
1022
1022
1022
1022
553
0
0
0
417
169
828
744
572
0
0
0
0
0
1020
1022
1022
1022
1022
1022
586
0
0
0
410
163
773
723
593
0
0
0
0
0
1022
1022
1022
1023
1022
1022
600
0
0
0
417
183
792
700
556
0
0
0
0
0
1022
1022
1022
1022
1022
1022
572
0
0
0
417
167
818
722
576
0
0
0
0
0
1017
1022
1022
1022
1022
1022
535
0
0
0
426
156
780
698
542
0
0
0
0
0
1022
1022
1022
1022
1022
1022
508
0
0
0
412
155
792
702
547
0
0
0
0
0
1022
1022
1022
1022
1022
1022
481
0
0
0
398
108
796
710
580
0
0
0
0
0
1022
1022
1022
1022
1022
1022
552
0
0
0
442
183
839
742
572
0
0
0
0
0
1022
1022
1022
1022
1022
1022
487
0
0
0
411
149
809
729
537
0
0
0
0
0
1021
1022
1022
1022
1022
1022
360
0
0
0
404
150
822
735
583
0
0
0
0
0
1022
1022
1022
1022
1022
1022
343
0
0
0
412
109
809
710
519
0
0
0
0
0
1022
1022
1022
1022
1022
1022
377
0
0
0
463
207
868
770
622
0
0
0
0
0
1022
1022
1022
1022
1022
1022
592
0
0
0
486
151
817
685
526
0
0
0
0
0
1022
1023
1022
1022
1022
1022
318
0
0
0
335
84
790
716
594
0
0
0
0
0
1022
1022
1022
1022
1022
1022
222
0
0
0
444
142
870
715
554
0
0
0
0
0
1022
1022
1022
1023
1022
1022
208
0
0
0
435
192
886
777
652
0
0
0
0
0
1022
1022
1023
1022
1022
1022
311
0
0
0
441
171
841
718
571
0
0
0
0
0
1022
1022
1022
1022
1022
1022
306
0
0
0
440
143
800
690
500
0
0
0
0
0
1022
1022
1022
1023
1022
1022
173
0
0
0
375
115
820
700
572
0
0
0
0
0
1022
1022
1022
1022
1022
1022
255
0
0
0
481
155
892
730
615
0
0
0
0
0
1022
1022
1022
1022
1022
1022
163
0
0
0
426
124
852
703
548
0
0
0
0
0
1022
1022
1022
1022
1022
1022
226
0
0
0
474
183
884
739
590
0
0
0
0
0
1022
1022
1022
1023
1022
1022
175
0
0
0
460
160
871
719
563
0
0
0
0
0
1022
1022
1022
1022
1022
1022
8
0
0
0
369
112
821
678
558
0
0
0
0
0
1022
1022
1023
1022
1022
1022
9
0
0
0
440
170
864
733
590
0
0
0
0
0
1022
1022
1022
1022
1022
1022
75
0
0
0
486
163
843
686
569
0
0
0
0
0
1022
1023
1022
1023
1022
1022
150
0
0
0
497
163
845
687
547
0
0
0
0
0
1022
1022
1022
1022
1022
1022
91
0
0
0
432
120
820
665
554
0
0
0
0
0
1022
1023
1022
1022
1022
1022
0
0
0
0
428
89
819
676
535
0
0
0
0
0
1022
1022
1023
1022
1022
1023
0
0
0
0
370
83
807
643
508
0
0
0
0
0
1022
1022
1022
1022
1022
1022
0
0
0
0
475
218
946
731
621
0
0
0
0
0
1022
1022
1022
1023
1022
1022
55
0
0
0
471
185
889
737
583
0
0
0
0
0
1022
1022
1022
1023
1022
1022
4
0
0
0
426
125
808
656
483
0
0
0
0
0
1022
1022
1022
1022
1022
1022
0
0
0
0
369
97
824
664
547
0
0
0
0
0
1022
1022
1022
1023
1022
1022
0
0
0
0
414
161
888
712
566
0
0
0
0
0
1022
1022
1022
1022
1022
1022
0
0
0
0
494
195
897
706
578
0
0
0
0
0
1022
1022
1022
1022
1022
1022
0
0
0
0
550
231
887
728
587
0
0
0
0
0
1022
1022
1022
1022
1022
1022
0
0
0
0
451
117
821
591
446
0
0
0
0
0
1022
1022
1022
1023
1022
1023
0
0
0
0
391
104
857
654
513
0
0
0
0
0
1022
1022
1022
1022
1022
1022
0
0
0
0
484
201
926
720
561
0
0
0
0
0
1022
1022
1022
1023
1022
1022
0
0
0
0
448
187
905
700
556
0
0
0
0
0
1022
1022
1022
1022
1022
1022
0
0
0
0
446
167
904
712
561
0
0
0
0
0
1022
1022
1022
1022
1022
1022
0
0
0
0
486
202
888
696
554
0
0
0
0
0
1022
1022
1022
1022
1022
1022
0
0
0
0
428
139
857
646
515
0
0
0
0
0
1022
1022
1022
1023
1022
1022
0
0
0
0
435
165
915
689
545
0
0
0
0
0
1022
1022
1022
1022
1022
1022
0
0
0
0
498
184
900
665
523
0
0
0
0
0
1022
1022
1022
1022
1022
1022
0
0
0
0
444
245
891
656
569
0
0
0
0
0
1022
1022
1022
1023
1022
1022
0
0
0
0
452
185
896
686
535
0
0
0
0
0
1023
1022
1022
1022
1022
1022
0
0
0
0
468
187
894
644
497
0
0
0
0
0
1023
1022
1022
1022
1022
1022
0
0
0
0
348
167
878
646
521
0
0
0
0
0
1022
1023
1022
1023
1022
1022
0
0
0
0
458
273
980
700
582
0
0
0
0
0
1022
1022
1022
1022
1022
1022
0
0
0
0
472
209
931
663
552
0
0
0
0
0
1022
1022
1022
1022
1022
1022
0
0
0
0
566
263
979
721
565
0
0
0
0
0
1022
1022
1022
1022
1022
1022
0
0
0
219
407
187
1021
619
320
0
0
0
0
0
1022
1022
1022
1023
1022
1022
0
0
0
0
259
169
949
661
582
0
0
0
0
0
1022
1023
1022
1023
1022
1023
0
0
0
4
359
313
990
689
568
0
0
0
0
0
1022
1022
1022
1023
1022
1022
0
0
0
145
415
206
882
611
485
0
0
0
0
0
1022
1022
1022
1023
1022
1022
0
0
0
193
445
255
880
579
523
0
0
0
0
0
1022
1023
1022
1022
1022
1022
0
0
0
113
239
91
801
670
579
0
0
0
0
0
1022
1022
1022
1023
1022
1022
0
0
0
167
395
238
799
442
299
0
0
0
0
0
1022
1022
1022
1023
1022
1022
0
0
0
119
494
234
837
596
503
0
0
0
0
0
1022
1022
1023
1022
1022
1022
0
0
0
89
471
369
934
668
575
0
0
0
0
0
1022
1022
1022
1022
1022
1022
0
0
0
132
393
314
918
608
542
0
0
0
0
0
1022
1023
1022
1023
1022
1022
0
0
0
170
409
309
880
622
515
0
0
0
0
0
1022
1023
1023
1023
1022
1022
0
0
0
113
385
285
840
529
494
0
0
0
0
0
1022
1022
1022
1023
1022
1022
0
0
0
0
270
166
761
534
496
0
0
0
0
0
1022
1022
1023
1023
1022
1022
0
0
0
267
466
322
920
646
494
0
0
0
0
0
1022
1022
1022
1022
1022
1022
0
0
0
116
295
195
793
633
619
0
0
0
0
0
1022
1022
1023
1023
1022
1022
0
0
0
186
293
124
604
309
262
0
0
0
0
0
1022
1022
1022
1023
1022
1022
0
0
0
525
770
729
1022
927
793
0
0
0
0
0
1022
1023
1022
1023
1022
1023
0
0
0
9
128
157
757
592
587
0
0
0
0
0
1022
1023
1022
1023
1022
1022
0
0
0
205
391
318
878
639
528
0
0
0
0
0
1022
1023
1022
1023
1022
1022
0
0
0
200
327
305
824
531
412
0
0
0
0
0
1022
1023
1022
1023
1022
1022
0
0
0
208
359
370
871
597
494
0
0
0
0
0
1023
1023
1022
1022
1022
1022
0
0
0
300
379
395
893
623
505
0
0
0
0
0
1022
1023
1022
1023
1022
1022
0
0
0
255
365
402
889
634
513
0
0
0
0
0
1022
1022
1022
1023
1022
1022
0
0
0
242
364
377
885
627
516
0
0
0
0
0
1022
1023
1022
1022
1022
1022
0
0
0
350
364
385
832
570
470
0
0
0
0
0
1022
1022
1022
1023
1022
1022
0
0
0
339
366
424
856
600
473
0
0
0
0
0
1022
1022
1022
1023
1022
1022
0
0
0
255
346
430
860
611
498
0
0
0
0
0
1022
1023
1022
1023
1022
1022
0
0
0
329
341
425
849
599
491
0
0
0
0
0
1023
1023
1022
1023
1022
1022
0
0
0
302
329
431
843
588
482
0
0
0
0
0
1022
1023
1022
1023
1022
1022
0
0
0
321
338
458
846
579
493
0
0
0
0
0
1023
1022
1022
1022
1022
1023
0
0
0
371
344
488
848
599
481
0
0
0
0
0
1023
1023
1022
1023
1023
1022
0
0
0
324
329
512
854
599
491
0
0
0
0
0
1022
1022
1022
1023
1022
1023
0
0
0
290
325
519
855
591
466
0
0
0
0
0
1022
1022
1022
1023
1023
1022
0
0
0
291
306
523
849
592
488
0
0
0
0
0
1023
1022
1022
1023
1022
1022
0
0
0
367
316
501
819
575
475
0
0
0
0
170
1022
1022
1022
1023
1022
1022
0
0
0
384
308
528
818
580
465
0
0
0
0
94
1022
1022
1022
1022
1022
1022
0
0
0
341
319
534
857
589
473
0
0
0
0
98
1022
1023
1022
1023
1022
1022
0
0
0
338
301
571
838
586
443
0
0
0
0
134
1022
1022
1022
1023
1022
1023
0
0
0
349
303
567
808
591
461
0
0
0
0
152
1022
1023
1022
1022
1022
1022
0
0
0
335
287
584
842
593
446
0
0
0
0
209
1022
1022
1022
1022
1022
1022
0
0
0
438
300
564
816
604
408
0
0
0
0
287
1023
1023
1022
1023
1022
1022
0
0
0
373
303
590
839
599
423
0
0
0
0
312
1022
1022
1022
1023
1022
1022
0
0
0
402
297
587
816
571
399
0
0
0
0
382
1023
1022
1022
1023
1022
1022
0
0
0
402
271
603
796
576
377
0
0
0
0
427
1022
1022
1022
1023
1022
1022
0
0
0
411
275
608
799
580
362
0
0
0
0
441
1022
1022
1022
1023
1022
1022
0
0
0
452
285
603
795
569
337
0
0
0
0
524
1023
1023
1022
1023
1022
1022
0
0
0
416
265
651
799
588
352
0
0
0
0
489
1022
1022
1022
1023
1022
1022
0
0
0
428
273
633
800
572
324
0
0
0
0
534
1023
1022
1022
1022
1022
1023
0
0
0
424
263
630
777
554
294
0
0
0
0
633
1022
1023
1022
1022
1022
1022
0
0
0
455
263
620
770
544
270
0
0
0
0
648
1022
1023
1022
1022
1022
1022
0
0
0
425
237
655
787
575
270
0
0
0
0
618
1022
1023
1022
1023
1022
1023
0
0
0
398
257
654
798
566
236
0
0
0
0
704
1022
1023
1022
1023
1022
1022
0
0
0
469
224
658
787
538
248
0
0
0
0
707
1022
1022
1022
1023
1022
1022
0
0
0
428
242
678
774
565
190
0
0
0
0
755
1022
1022
1022
1023
1022
1022
0
0
0
443
247
669
769
559
151
0
0
0
0
711
1022
1022
1022
1023
1022
1022
0
0
0
409
236
698
760
565
123
0
0
0
0
811
1022
1022
1022
1023
1022
1022
0
0
0
476
232
679
760
544
93
0
0
0
0
851
1022
1023
1022
1023
1022
1022
0
0
0
484
230
705
749
542
56
0
0
0
0
899
1022
1023
1022
1023
1022
1022
0
0
0
429
220
716
771
569
37
0
0
0
0
900
1022
1022
1023
1023
1022
1022
0
0
0
448
207
723
768
560
0
0
0
0
0
857
1022
1022
1022
1022
1022
1021
0
0
0
425
202
728
773
579
0
0
0
0
0
918
1022
1022
1022
1022
1022
1019
0
0
0
450
199
741
763
546
0
0
0
0
0
913
1022
1023
1022
1023
1022
946
0
0
0
433
165
743
735
541
0
0
0
0
0
876
1022
1022
1022
1023
1022
695
0
0
0
330
62
666
660
470
0
0
0
0
0
464
1022
1023
1022
1023
1022
1021
0
0
0
436
125
649
596
345
0
0
0
0
0
461
1022
1023
1022
1023
1022
142
0
0
0
203
0
610
850
721
0
0
0
0
0
1022
1022
1022
1023
1023
1022
1022
0
0
65
1002
723
1023
1022
807
0
0
0
0
0
1022
1022
1022
1022
1022
1022
1022
0
0
127
984
492
985
964
631
0
0
0
0
0
386
1022
1022
1022
1023
1022
456
0
0
0
0
0
0
966
1022
153
0
0
0
0
0
375
1022
1022
1023
1022
4
0
0
0
677
628
1023
919
577
0
0
0
0
0
1022
1022
1022
1022
1022
1022
879
0
0
0
457
233
999
1022
951
107
0
0
0
0
1022
1022
1022
1022
1023
1022
0
0
0
0
550
395
1022
1022
910
0
0
0
0
0
1022
1022
1022
1022
1023
1022
786
0
0
0
546
187
697
592
360
0
0
0
0
0
1016
1022
1022
1022
1023
1022
0
0
0
0
624
326
909
786
527
0
0
0
0
0
1022
1022
1023
1022
1023
1022
608
0
0
0
946
606
1022
902
644
0
0
0
0
0
498
1022
1023
1022
1022
1022
25
0
0
0
750
233
816
795
572
0
0
0
0
0
1022
1022
1022
1022
1023
1022
335
0
0
0
355
0
655
589
446
0
0
0
0
0
1022
1022
1022
1022
1023
1022
54
0
0
0
537
232
947
847
698
0
0
0
0
0
1022
1022
1022
1022
1023
1022
63
0
0
0
189
0
494
421
231
0
0
0
0
0
1022
1022
1022
1022
1023
1023
204
0
0
0
632
112
558
400
166
0
0
0
0
0
1023
1023
1022
1022
1023
1022
713
0
0
0
477
113
710
679
502
0
0
0
0
0
1022
1022
1023
1022
1022
1022
201
0
0
0
214
0
499
489
367
0
0
0
0
0
1022
1022
1023
1022
1023
1022
416
0
0
0
541
115
630
433
380
0
0
0
0
0
1022
1022
1023
1022
1023
1022
238
0
0
0
199
0
568
568
529
0
0
0
0
0
1022
1022
1023
1022
1023
1022
0
0
0
0
313
2
583
536
446
0
0
0
0
0
1022
1022
1023
1022
1023
1022
0
0
0
0
477
212
891
684
364
0
0
0
0
0
1022
1022
1023
1022
1023
1022
62
0
0
0
386
67
799
716
585
0
0
0
0
0
1022
1022
1022
1022
1022
1022
1022
0
0
0
238
0
355
106
0
0
0
0
0
0
1022
1022
1022
1022
1023
1022
0
0
0
0
325
0
563
428
344
0
0
0
0
0
1022
1022
1023
1022
1023
1022
2
0
0
0
348
57
755
635
521
0
0
0
0
0
1022
1022
1023
1022
1023
1022
0
0
0
0
354
22
737
559
441
0
0
0
0
0
1022
1022
1022
1022
1023
1022
0
0
0
0
575
238
958
742
550
0
0
0
0
0
1022
1023
1023
1022
1023
1022
4
0
0
0
396
135
816
693
549
0
0
0
0
0
1022
1022
1022
1022
1023
1022
0
0
0
0
264
0
663
561
425
0
0
0
0
0
1023
1022
1023
1022
1023
1022
0
0
0
0
535
153
793
618
500
0
0
0
0
0
1022
1022
1022
1022
1023
1022
0
0
0
0
369
99
816
636
509
0
0
0
0
0
1023
1022
1022
1022
1023
1022
0
0
0
0
354
118
832
657
508
0
0
0
0
0
1022
1022
1022
1022
1023
1022
0
0
0
0
424
118
783
635
518
0
0
0
0
0
1022
1022
1022
1022
1023
1022
0
0
0
0
421
54
765
559
432
0
0
0
0
0
1022
1023
1023
1022
1023
1022
0
0
0
0
403
132
854
679
578
0
0
0
0
0
1022
1022
1022
1022
1023
1022
0
0
0
0
377
135
826
704
473
0
0
0
0
0
1022
1022
1023
1022
1023
1022
0
0
0
0
349
77
785
602
480
0
0
0
0
0
1023
1022
1023
1022
1022
1022
0
0
0
0
367
120
846
664
542
0
0
0
0
0
1022
1022
1023
1022
1023
1022
0
0
0
0
323
112
772
593
510
0
0
0
0
0
1023
1022
1023
1022
1023
1022
0
0
0
0
385
134
826
628
495
0
0
0
0
0
1022
1022
1022
1022
1023
1022
0
0
0
0
391
132
867
636
529
0
0
0
0
0
1023
1022
1023
1022
1023
1022
0
0
0
0
403
162
889
655
546
0
0
0
0
0
1022
1022
1022
1022
1023
1022
0
0
0
0
370
115
788
609
482
0
0
0
0
0
1022
1022
1022
1022
1023
1022
0
0
0
0
385
172
834
659
529
0
0
0
0
0
1022
1022
1022
1022
1023
1022
0
0
0
0
419
169
844
608
460
0
0
0
0
0
1022
1022
1022
1022
1023
1022
0
0
0
0
381
158
824
590
483
0
0
0
0
0
1022
1022
1022
1022
1023
1023
0
0
0
3
399
195
875
669
535
0
0
0
0
0
1023
1023
1022
1022
1023
1022
0
0
0
11
398
199
879
651
507
0
0
0
0
0
1022
1022
1023
1022
1023
1022
0
0
0
139
446
192
876
624
508
0
0
0
0
0
1022
1022
1022
1022
1023
1022
0
0
0
123
387
180
835
623
459
0
0
0
0
0
1022
1023
1023
1022
1023
1022
0
0
0
0
378
221
886
692
539
0
0
0
0
0
1022
1022
1023
1022
1022
1022
0
0
0
19
339
177
840
640
495
0
0
0
0
0
1022
1022
1022
1022
1023
1022
0
0
0
67
388
236
864
621
490
0
0
0
0
0
1022
1023
1022
1022
1023
1022
0
0
0
217
433
242
870
641
513
0
0
0
0
0
1022
1023
1023
1022
1023
1022
0
0
0
211
396
228
854
609
450
0
0
0
0
0
1022
1022
1023
1022
1023
1022
0
0
0
194
375
218
839
600
471
0
0
0
0
0
1022
1023
1023
1022
1023
1022
0
0
0
122
378
256
898
652
531
0
0
0
0
0
1022
1022
1023
1022
1023
1022
0
0
0
120
367
259
861
632
511
0
0
0
0
0
1022
1022
1023
1022
1023
1022
0
0
0
169
394
294
859
652
525
0
0
0
0
0
1022
1023
1022
1022
1023
1022
0
0
0
116
343
260
857
623
509
0
0
0
0
0
1022
1022
1022
1022
1022
1022
0
0
0
86
364
228
875
631
540
0
0
0
0
0
1022
1022
1023
1022
1023
1022
0
0
0
176
386
321
919
676
558
0
0
0
0
0
1022
1023
1023
1022
1023
1022
0
0
0
155
366
274
861
634
519
0
0
0
0
0
1022
1022
1022
1022
1023
1022
0
0
0
309
366
295
867
623
497
0
0
0
0
0
1022
1022
1023
1022
1022
1022
0
0
0
316
358
281
859
581
470
0
0
0
0
0
1022
1023
1023
1022
1022
1022
0
0
0
282
374
310
837
564
493
0
0
0
0
0
1022
1022
1022
1022
1023
1022
0
0
0
215
346
330
864
641
529
0
0
0
0
0
1022
1022
1022
1022
1023
1022
0
0
0
225
352
339
880
661
506
0
0
0
0
0
1022
1022
1022
1022
1023
1022
0
0
0
207
348
348
858
655
536
0
0
0
0
0
1023
1022
1022
1022
1023
1022
0
0
0
231
395
333
849
595
499
0
0
0
0
0
1022
1022
1022
1022
1023
1022
0
0
0
189
318
361
833
616
487
0
0
0
0
0
1022
1023
1022
1022
1023
1022
0
0
0
211
323
359
865
623
539
0
0
0
0
0
1022
1022
1022
1022
1023
1022
0
0
0
233
340
391
876
624
482
0
0
0
0
0
1022
1023
1023
1022
1023
1022
0
0
0
283
348
385
848
603
485
0
0
0
0
0
1022
1022
1022
1022
1023
1022
0
0
0
387
359
394
853
624
506
0
0
0
0
0
1022
1022
1022
1022
1023
1022
0
0
0
349
348
352
817
593
480
0
0
0
0
0
1022
1022
1023
1022
1023
1022
0
0
0
288
307
418
882
635
510
0
0
0
0
0
1022
1022
1022
1022
1023
1022
0
0
0
288
340
440
899
633
507
0
0
0
0
0
1022
1023
1022
1022
1023
1022
0
0
0
322
346
478
904
648
536
0
0
0
0
0
1022
1023
1022
1022
1023
1022
0
0
0
291
313
429
873
621
480
0
0
0
0
0
1022
1022
1022
1022
1023
1022
0
0
0
315
364
483
885
644
502
0
0
0
0
0
1022
1022
1022
1022
1023
1022
0
0
0
300
341
502
899
642
514
0
0
0
0
0
1022
1022
1023
1022
1023
1022
0
0
0
263
295
492
859
638
502
0
0
0
0
0
1022
1022
1022
1022
1023
1022
0
0
0
289
302
494
846
625
462
0
0
0
0
0
1022
1022
1022
1022
1023
1022
0
0
0
394
326
488
846
599
473
0
0
0
0
148
1022
1022
1022
1022
1023
1022
0
0
0
416
326
501
832
608
470
0
0
0
0
143
1022
1022
1022
1022
1023
1022
0
0
0
370
302
466
816
562
443
0
0
0
0
0
1022
1022
1023
1022
1023
1022
0
0
0
287
331
527
874
682
502
0
0
0
0
231
1022
1022
1022
1022
1023
1022
0
0
0
428
359
585
835
634
496
0
0
0
0
208
1022
1022
1022
1022
1023
1022
0
0
0
368
310
559
873
604
443
0
0
0
0
81
1022
1022
1022
1022
1023
1022
0
0
0
361
292
554
852
631
463
0
0
0
0
177
1023
1023
1023
1022
1023
1022
0
0
0
390
339
606
861
636
448
0
0
0
0
199
1022
1022
1023
1022
1023
1022
0
0
0
349
281
581
816
588
383
0
0
0
0
48
1022
1022
1023
1022
1022
1022
0
0
0
403
307
620
823
609
428
0
0
0
0
255
1022
1022
1022
1022
1022
1022
0
0
0
418
298
577
799
603
391
0
0
0
0
322
1023
1022
1022
1022
1022
1022
0
0
0
470
295
578
835
585
352
0
0
0
0
281
1022
1022
1022
1022
1023
1022
0
0
0
481
303
608
798
624
425
0
0
0
0
516
1022
1022
1023
1022
1023
1022
0
0
0
480
290
556
831
563
348
0
0
0
0
376
1022
1022
1023
1022
1023
1022
0
0
0
427
287
612
814
595
381
0
0
0
0
405
1022
1022
1022
1022
1023
1022
0
0
0
490
323
671
861
612
319
0
0
0
0
498
1022
1022
1022
1022
1023
1022
0
0
0
390
311
611
863
638
445
0
0
0
0
664
1022
1022
1023
1022
1022
1022
0
0
0
463
219
546
802
607
291
0
0
0
0
375
1022
1023
1022
1022
1023
1022
0
0
0
423
234
659
832
597
402
0
0
0
0
767
1022
1022
1022
1022
1023
1022
0
0
0
467
267
628
793
588
260
0
0
0
0
604
1022
1023
1022
1022
1022
1022
0
0
0
370
213
618
790
540
217
0
0
0
0
751
1023
1022
1023
1022
1022
1022
0
0
0
502
268
604
775
555
240
0
0
0
0
760
1022
1022
1022
1022
1023
1023
0
0
0
419
224
621
736
497
160
0
0
0
0
699
1023
1022
1022
1022
1023
1022
0
0
0
409
203
611
788
579
153
0
0
0
0
763
1022
1022
1022
1022
1022
1022
0
0
0
448
288
659
790
609
225
0
0
0
0
818
1022
1022
1023
1022
1023
1022
0
0
0
420
234
670
769
558
171
0
0
0
0
755
1022
1023
1023
1022
1023
1022
0
0
0
465
232
655
738
608
152
0
0
0
0
883
1022
1022
1023
1022
1022
1022
0
0
0
321
165
677
699
553
94
0
0
0
0
844
1022
1023
1023
1022
1023
1022
0
0
0
377
249
631
743
520
25
0
0
0
0
784
1022
1022
1022
1022
1023
1022
0
0
0
422
243
732
814
605
94
0
0
0
0
939
1022
1022
1023
1022
1023
1022
0
0
0
466
244
722
748
556
2
0
0
0
0
950
1022
1022
1023
1022
1023
1022
0
0
0
441
159
648
576
417
0
0
0
0
0
1021
1022
1022
1022
1022
1023
861
0
0
0
506
217
708
812
569
23
0
0
0
0
1011
1022
1022
1023
1022
1022
905
0
0
0
493
222
746
766
577
12
0
0
0
0
976
1022
1023
1022
1022
1023
1021
0
0
0
467
213
678
691
525
0
0
0
0
0
1014
1022
1022
1022
1022
1022
823
0
0
0
399
173
726
749
543
0
0
0
0
0
802
1022
1022
1023
1022
1022
1022
0
0
0
479
240
790
790
573
0
0
0
0
0
914
1022
1022
1023
1022
1022
670
0
0
0
454
237
819
820
624
0
0
0
0
0
1022
1022
1022
1022
1022
1022
679
0
0
0
410
146
739
747
577
0
0
0
0
0
1022
1023
1022
1022
1022
1022
727
0
0
0
489
227
777
712
517
0
0
0
0
0
892
1022
1023
1023
1022
1023
339
0
0
0
645
382
947
899
663
0
0
0
0
0
1022
1023
1022
1022
1022
1023
799
0
0
0
252
0
615
653
547
0
0
0
0
0
1014
1022
1022
1022
1022
1022
691
0
0
0
561
232
699
691
468
0
0
0
0
0
1022
1022
1022
1023
1022
1022
537
0
0
0
498
164
742
761
590
0
0
0
0
0
1022
1022
1022
1023
1022
1023
395
0
0
0
467
151
738
729
552
0
0
0
0
0
1022
1022
1023
1022
1022
1022
473
0
0
0
462
108
697
671
510
0
0
0
0
0
1023
1022
1022
1022
1022
1023
488
0
0
0
487
140
743
692
533
0
0
0
0
0
1022
1022
1022
1022
1022
1022
434
0
0
0
502
133
755
716
548
0
0
0
0
0
1022
1022
1023
1022
1022
1023
331
0
0
0
442
148
772
718
557
0
0
0
0
0
1023
1023
1022
1022
1022
1022
287
0
0
0
428
128
784
710
553
0
0
0
0
0
1023
1022
1022
1022
1022
1023
277
0
0
0
427
135
801
711
560
0
0
0
0
0
1022
1022
1022
1022
1022
1022
248
0
0
0
465
139
795
719
555
0
0
0
0
0
1022
1022
1023
1022
1022
1022
188
0
0
0
487
150
744
706
528
0
0
0
0
0
1022
1022
1023
1022
1022
1022
153
0
0
0
492
103
766
693
517
0
0
0
0
0
1022
1022
1022
1022
1022
1023
96
0
0
0
483
96
772
665
519
0
0
0
0
0
1023
1022
1022
1022
1022
1022
73
0
0
0
461
107
822
697
539
0
0
0
0
0
1022
1022
1022
1022
1022
1023
10
0
0
0
446
120
800
700
540
0
0
0
0
0
1023
1022
1022
1022
1022
1022
9
0
0
0
460
112
809
693
534
0
0
0
0
0
1022
1022
1022
1022
1022
1022
0
0
0
0
455
115
801
693
550
0
0
0
0
0
1022
1022
1022
1022
1022
1022
0
0
0
0
442
108
810
703
545
0
0
0
0
0
1022
1022
1022
1022
1022
1023
0
0
0
0
440
122
800
710
547
0
0
0
0
0
1022
1022
1022
1022
1022
1022
0
0
0
0
447
104
813
695
527
0
0
0
0
0
1022
1022
1022
1022
1022
1023
0
0
0
0
441
103
824
686
531
0
0
0
0
0
1023
1022
1022
1022
1022
1023
0
0
0
0
468
92
795
661
513
0
0
0
0
0
1022
1022
1022
1023
1022
1022
0
0
0
0
465
89
787
669
509
0
0
0
0
0
1023
1022
1022
1023
1022
1022
0
0
0
0
448
97
819
666
515
0
0
0
0
0
1022
1022
1022
1022
1022
1022
0
0
0
0
471
99
814
638
532
0
0
0
0
0
1023
1022
1023
1022
1022
1022
0
0
0
0
456
102
823
675
516
0
0
0
0
0
1022
1022
1022
1022
1022
1023
0
0
0
0
424
105
845
646
529
0
0
0
0
0
1022
1022
1022
1023
1022
1022
0
0
0
0
441
124
854
667
520
0
0
0
0
0
1022
1023
1022
1022
1022
1022
0
0
0
0
445
119
866
662
521
0
0
0
0
0
1023
1022
1023
1022
1022
1022
0
0
0
0
424
115
860
646
527
0
0
0
0
0
1022
1022
1022
1022
1022
1023
0
0
0
0
440
109
832
655
519
0
0
0
0
0
1023
1022
1023
1022
1022
1022
0
0
0
0
432
121
835
658
520
0
0
0
0
0
1022
1022
1022
1022
1022
1022
0
0
0
0
440
113
812
624
506
0
0
0
0
0
1023
1022
1022
1022
1022
1022
0
0
0
0
450
113
809
635
503
0
0
0
0
0
1022
1022
1022
1022
1022
1023
0
0
0
0
429
114
818
655
500
0
0
0
0
0
1022
1022
1022
1023
1022
1022
0
0
0
0
423
124
847
638
515
0
0
0
0
0
1022
1022
1023
1023
1022
1022
0
0
0
0
424
142
859
649
530
0
0
0
0
0
1023
1022
1022
1022
1022
1022
0
0
0
0
413
140
847
621
511
0
0
0
0
0
1022
1022
1022
1022
1022
1022
0
0
0
0
398
151
838
657
521
0
0
0
0
0
1022
1022
1023
1022
1022
1022
0
0
0
0
411
152
861
636
525
0
0
0
0
0
1022
1022
1022
1022
1022
1022
0
0
0
0
413
163
868
644
529
0
0
0
0
0
1022
1022
1022
1022
1022
1022
0
0
0
0
409
157
839
614
510
0
0
0
0
0
1022
1022
1022
1022
1022
1023
0
0
0
71
418
159
825
621
503
0
0
0
0
0
1022
1022
1022
1022
1022
1022
0
0
0
160
413
149
848
588
496
0
0
0
0
0
1022
1022
1022
1022
1022
1023
0
0
0
167
407
157
816
606
493
0
0
0
0
0
1022
1023
1022
1023
1022
1022
0
0
0
169
404
169
810
625
504
0
0
0
0
0
1022
1022
1022
1022
1022
1022
0
0
0
85
399
203
853
655
514
0
0
0
0
0
1023
1023
1022
1022
1022
1022
0
0
0
68
399
205
819
629
516
0
0
0
0
0
1022
1023
1022
1022
1022
1022
0
0
0
166
381
192
831
620
486
0
0
0
0
0
1022
1022
1023
1023
1022
1022
0
0
0
134
386
198
823
639
508
0
0
0
0
0
1022
1022
1022
1022
1022
1023
0
0
0
167
382
206
831
610
493
0
0
0
0
0
1022
1022
1022
1022
1022
1022
0
0
0
115
328
164
822
551
454
0
0
0
0
0
1022
1022
1022
1022
1022
1023
0
0
0
0
224
508
1023
946
694
0
0
0
0
0
1022
1023
1022
1022
1022
1022
0
0
0
265
465
318
864
655
562
0
0
0
0
0
1022
1022
1022
1022
1022
1022
0
0
0
258
467
257
848
605
446
0
0
0
0
0
1022
1023
1022
1022
1022
1022
0
0
0
143
325
245
798
571
481
0
0
0
0
0
1022
1022
1022
1022
1022
1022
0
0
0
128
351
244
853
567
481
0
0
0
0
0
1023
1022
1023
1022
1022
1022
0
0
0
168
338
262
844
617
513
0
0
0
0
0
1022
1022
1022
1022
1022
1022
0
0
0
195
342
268
776
565
481
0
0
0
0
0
1022
1022
1022
1022
1022
1022
0
0
0
217
360
264
835
583
495
0
0
0
0
0
1022
1022
1023
1022
1022
1022
0
0
0
235
341
271
811
573
488
0
0
0
0
0
1022
1022
1022
1022
1022
1022
0
0
0
183
356
271
820
575
491
0
0
0
0
0
1022
1022
1022
1022
1022
1022
0
0
0
242
354
299
846
595
491
0
0
0
0
0
1022
1022
1022
1022
1022
1022
0
0
0
225
378
308
856
590
476
0
0
0
0
0
1022
1022
1022
1022
1022
1023
0
0
0
322
361
316
746
546
444
0
0
0
0
0
1022
1022
1022
1022
1022
1022
0
0
0
329
341
322
768
560
424
0
0
0
0
0
1022
1022
1022
1022
1022
1022
0
0
0
145
264
269
775
546
431
0
0
0
0
0
1022
1022
1022
1022
1022
1022
0
0
0
202
892
760
984
754
630
0
0
0
0
0
1022
1022
1022
1022
1022
1022
0
0
0
322
416
477
932
768
635
0
0
0
0
124
1022
1022
1022
1022
1022
1022
0
0
0
294
342
409
781
568
467
0
0
0
0
0
1022
1022
1022
1022
1022
1022
0
0
0
124
214
514
934
711
571
0
0
0
0
0
1022
1022
1022
1022
1022
1022
0
0
0
588
608
606
978
720
596
0
0
0
0
822
1022
1022
1023
1022
1022
1022
0
0
0
207
11
0
0
0
442
0
0
0
0
0
459
1022
1022
1022
1022
1022
0
0
0
90
370
694
1022
952
613
0
0
0
0
0
1022
1022
1022
1022
1022
1022
0
0
0
567
498
497
848
518
437
0
0
0
0
0
1022
1022
1022
1022
1022
1022
0
0
0
328
237
343
734
562
504
0
0
0
0
418
1022
1022
1022
1022
1022
1022
0
0
0
332
195
240
587
391
289
0
0
0
0
197
1022
1023
1023
1023
1022
1022
0
0
0
262
267
386
736
536
502
0
0
0
0
350
1022
1022
1022
1022
1022
1022
0
0
0
459
301
335
537
388
364
0
0
0
0
0
1022
1022
1022
1023
1022
1022
0
0
0
291
312
422
857
583
396
0
0
0
0
261
1022
1022
1022
1022
1022
1023
0
0
0
375
303
433
791
652
494
0
0
0
0
11
1022
1022
1023
1022
1022
1022
0
0
0
312
221
369
743
552
416
0
0
0
0
137
1022
1022
1022
1022
1022
1022
0
0
0
149
