530
560
585
603
615
620
616
604
583
555
525
497
474
455
444
440
443
455
477
501
527
553
577
595
607
611
608
598
579
556
529
502
477
455
440
432
433
441
459
483
510
538
565
587
604
612
612
601
580
556
527
499
473
451
437
431
434
444
465
490
515
540
563
581
591
597
594
583
561
536
508
480
453
431
415
408
411
419
436
460
486
512
537
558
571
577
574
563
541
514
487
461
438
418
405
398
400
410
429
454
481
507
530
549
560
561
556
542
518
489
457
428
401
379
367
360
363
371
390
414
442
471
496
518
536
543
540
530
511
486
457
429
404
384
369
366
370
381
400
425
452
477
499
519
530
536
536
528
511
487
460
435
411
391
380
377
382
393
416
443
473
502
527
548
561
566
563
551
529
504
475
449
427
409
397
395
399
411
432
459
487
514
540
561
577
584
581
572
553
529
502
475
449
429
416
411
415
427
451
478
509
539
565
583
596
601
599
589
567
541
511
480
453
430
417
412
416
428
447
472
499
526
551
574
590
594
589
579
557
533
508
483
459
439
426
421
424
437
460
491
522
553
579
600
614
618
615
605
583
559
531
504
479
457
446
439
443
454
476
501
529
556
580
600
612
618
616
607
586
560
530
502
477
456
442
434
435
446
467
495
523
552
580
602
617
621
617
607
587
563
535
506
480
459
448
443
447
457
477
503
530
559
583
602
614
619
616
608
587
563
536
510
485
463
446
438
439
444
460
481
508
535
560
579
592
595
590
577
554
526
495
465
440
420
407
401
405
417
438
463
490
518
543
564
578
585
583
575
553
528
499
475
454
437
427
425
432
444
466
494
523
550
576
596
611
617
612
600
577
553
526
497
472
453
442
438
444
456
475
499
526
555
580
603
617
624
624
613
595
572
546
520
496
476
463
457
461
470
490
514
540
568
592
612
628
632
629
620
601
579
555
531
512
496
482
475
472
475
489
502
515
529
536
537
532
517
493
460
417
372
323
274
226
184
150
120
97
87
92
108
137
169
201
234
264
289
316
343
366
395
431
462
489
513
533
551
571
591
616
644
667
684
698
708
716
713
705
688
659
632
598
569
543
523
512
504
505
514
531
555
582
610
636
657
672
678
675
665
642
616
585
556
527
505
489
483
484
491
509
532
558
583
607
627
644
655
654
644
624
598
569
543
516
494
478
469
470
477
495
516
543
568
592
610
624
633
634
625
606
582
555
530
507
486
472
465
464
469
486
507
531
556
579
601
617
623
622
611
591
568
540
514
493
473
461
455
460
472
492
518
546
575
600
621
636
644
643
634
613
588
559
532
507
486
472
467
469
478
498
524
552
581
606
627
639
643
639
627
603
576
546
518
492
473
459
451
452
462
482
508
532
559
584
604
617
624
626
619
601
578
552
527
508
491
480
475
477
486
505
530
557
586
611
629
642
647
645
636
615
589
559
528
499
474
456
448
448
456
473
495
519
544
567
585
598
603
601
590
565
539
510
483
458
436
422
417
419
428
449
474
503
532
559
580
595
602
600
588
568
544
515
487
462
440
429
423
424
431
448
472
497
523
546
565
579
585
583
574
555
527
498
471
445
422
408
401
404
414
434
459
487
513
539
561
576
584
585
579
559
533
503
474
447
424
409
403
404
412
431
454
481
511
535
556
571
580
580
572
551
526
497
470
447
425
410
403
405
415
437
462
492
521
547
571
589
598
596
588
569
546
520
495
472
455
443
436
438
451
474
501
531
561
588
610
626
632
630
619
599
574
545
519
496
475
459
450
449
456
475
498
526
556
582
603
617
625
626
619
598
575
546
518
493
473
461
456
460
470
492
518
548
576
603
623
638
645
642
632
612
587
557
528
504
481
466
457
458
464
483
507
533
559
583
602
617
624
623
614
595
573
545
517
493
469
453
446
448
457
477
502
527
553
576
596
611
618
616
608
589
564
538
510
487
467
455
448
449
456
474
498
524
552
578
602
620
628
627
619
600
575
545
518
491
467
451
441
440
449
467
493
524
555
582
602
617
623
621
612
595
572
543
514
490
471
456
448
451
459
479
504
531
559
583
601
614
618
615
606
585
561
533
506
482
462
446
437
439
447
468
495
525
555
583
607
622
628
627
620
599
575
547
519
494
474
459
450
450
457
476
500
527
553
576
594
604
607
604
594
574
551
524
496
470
450
438
431
432
441
461
486
515
546
573
595
611
618
617
607
585
561
534
507
483
463
451
444
445
454
472
495
522
549
575
599
616
625
624
617
598
575
548
521
496
475
460
451
450
457
475
497
523
550
575
596
612
618
615
605
586
562
534
506
481
460
446
440
442
451
472
502
532
561
589
612
630
638
638
632
614
593
568
542
519
500
487
480
480
486
501
524
552
580
606
628
644
651
651
644
625
602
573
544
520
497
484
475
473
480
498
521
547
574
597
614
628
633
631
620
599
573
545
519
496
475
460
451
452
460
478
502
528
557
583
604
618
623
620
612
593
569
540
511
484
463
448
440
438
446
467
495
523
551
577
598
613
620
619
611
594
571
546
520
499
480
470
465
468
476
494
517
543
569
593
613
628
636
638
632
615
594
565
535
508
485
467
457
455
460
477
500
525
551
575
595
608
614
610
600
579
556
526
498
472
447
431
421
418
425
442
465
490
517
543
565
581
591
592
585
568
547
519
494
470
451
434
424
427
434
451
476
505
532
557
579
595
601
599
590
572
547
518
489
464
443
428
421
422
432
451
475
503
534
560
583
601
611
611
603
582
556
527
499
475
454
438
428
428
434
452
475
501
525
551
572
590
597
596
589
572
548
520
494
468
447
432
423
423
431
448
472
499
527
552
575
591
599
597
589
571
545
515
484
456
433
415
407
406
412
428
451
479
505
529
551
568
578
579
571
550
524
494
463
436
416
402
396
397
406
427
455
485
514
541
563
579
588
589
582
562
536
508
480
454
431
415
408
411
421
440
466
494
523
550
572
590
600
598
587
567
540
511
479
450
426
409
403
408
418
438
461
487
517
544
568
587
594
596
591
577
559
534
508
484
465
449
442
442
448
465
487
512
539
563
584
600
608
606
598
580
556
526
499
472
451
437
430
429
436
452
475
501
527
549
569
585
592
591
585
567
544
515
487
460
438
424
417
420
428
447
468
495
525
554
579
598
608
609
603
585
563
536
507
480
458
443
435
436
444
463
487
513
542
568
591
610
617
615
607
587
561
533
506
480
457
441
433
433
438
453
474
498
524
548
572
590
598
599
591
574
551
526
500
475
454
439
430
430
438
455
480
510
539
565
587
603
611
609
601
581
556
525
495
464
439
423
415
417
425
441
460
479
500
517
530
539
539
525
501
465
419
368
319
274
233
196
165
145
128
122
122
132
150
172
198
223
248
269
287
298
309
319
336
362
401
439
477
514
550
588
625
660
693
721
740
752
753
746
730
705
678
647
617
590
563
543
529
525
531
548
568
590
613
633
652
668
675
675
669
652
628
599
569
542
519
505
501
504
512
529
554
581
610
636
656
671
677
677
671
652
627
597
571
544
521
505
494
492
499
516
540
567
593
616
635
648
656
656
648
631
606
576
545
518
495
478
467
466
470
483
505
527
551
574
594
609
616
616
608
591
569
543
515
489
468
453
443
442
449
465
489
515
545
572
593
608
616
615
608
591
566
535
505
477
454
436
425
424
430
448
472
498
527
552
575
593
604
604
597
579
555
524
493
466
443
425
414
412
418
435
458
484
511
537
558
574
581
579
573
556
534
505
477
451
428
411
399
399
407
425
452
480
508
531
551
566
574
575
567
549
524
495
464
437
416
401
393
395
403
422
445
473
503
528
552
572
581
583
577
561
537
507
476
448
426
411
404
407
416
434
460
487
518
546
568
583
589
588
582
566
542
516
492
467
446
429
419
419
425
443
466
490
515
539
559
574
578
577
568
548
523
492
462
436
413
394
384
385
395
413
438
465
494
522
548
568
579
583
576
558
535
506
479
452
430
414
403
400
404
419
443
467
493
517
538
555
563
563
555
536
511
481
452
429
408
393
384
383
387
403
426
452
480
505
524
539
549
551
547
533
512
487
462
439
419
406
400
403
412
430
456
484
517
546
570
590
600
603
600
584
562
534
508
486
468
456
450
453
462
482
508
537
566
593
616
635
643
645
639
623
600
574
546
521
503
488
481
483
490
508
531
558
585
609
631
648
659
660
654
638
615
588
559
531
506
487
477
478
485
501
523
547
575
601
624
642
652
652
644
627
602
573
542
515
490
472
460
458
461
475
498
527
557
584
608
627
639
640
634
617
595
569
541
513
491
474
465
465
473
490
512
537
564
590
612
631
640
642
635
617
593
564
535
510
488
472
463
463
469
484
509
539
569
595
619
637
645
646
639
621
594
565
534
504
479
459
448
446
451
468
493
522
552
581
606
626
636
637
631
611
588
556
526
497
475
460
453
455
464
480
504
531
559
583
603
617
624
623
615
599
575
547
519
495
471
453
443
443
449
465
487
515
543
572
595
613
622
622
616
596
569
537
507
477
454
435
423
422
428
443
467
493
521
546
568
583
594
598
593
578
554
524
494
465
441
423
415
415
421
437
461
487
515
543
566
587
596
599
593
577
554
527
498
468
442
422
409
408
412
427
450
476
504
529
551
568
578
579
572
554
531
503
475
448
425
409
400
401
410
426
451
480
508
533
556
573
583
584
578
561
537
511
484
459
436
420
411
411
419
435
460
486
514
541
564
582
593
595
592
578
556
528
500
473
451
435
425
423
429
444
467
493
523
550
575
594
603
604
596
579
556
528
497
467
442
423
408
405
411
427
450
479
507
534
558
581
596
602
599
584
561
534
505
475
448
431
419
417
423
438
459
483
509
536
559
579
591
595
591
575
551
523
493
464
440
423
414
413
420
436
462
491
521
548
572
591
603
606
599
582
558
530
502
473
447
425
411
406
407
421
444
473
504
534
560
580
591
593
587
571
548
520
492
466
446
430
422
426
436
453
479
505
532
557
577
593
605
611
607
591
566
537
506
474
449
431
418
415
419
433
455
482
511
539
563
581
591
593
587
570
545
520
495
469
447
432
423
422
428
444
467
495
525
552
575
591
599
598
593
579
556
528
500
471
446
426
415
413
418
432
453
476
502
527
547
562
569
569
564
550
527
501
473
447
425
408
396
395
402
418
441
468
497
521
543
558
565
563
557
543
522
495
468
444
424
413
408
412
421
439
464
492
520
545
567
581
587
588
584
571
550
526
502
479
458
441
430
426
428
440
457
477
499
521
540
553
560
559
549
530
506
477
447
420
394
375
360
354
355
367
385
410
437
462
486
505
514
517
511
495
472
445
416
389
366
348
336
334
340
353
375
397
421
446
468
487
498
502
497
483
462
437
410
387
364
349
342
343
350
366
389
414
440
464
484
499
508
510
505
493
472
448
422
398
377
358
345
344
350
366
387
412
440
467
491
510
524
529
527
515
497
475
448
424
403
385
376
376
381
394
415
442
468
491
512
527
534
535
530
518
496
467
439
413
391
377
369
370
375
386
403
425
446
463
476
483
482
470
448
414
368
317
266
216
172
137
114
97
84
79
83
95
109
126
147
173
198
220
244
267
287
309
339
380
424
462
493
522
545
569
597
627
656
681
700
713
717
713
702
684
657
628
599
569
542
519
502
493
491
499
516
535
556
579
600
615
623
624
616
600
579
555
531
507
486
470
460
459
465
478
496
521
547
571
591
610
617
615
608
593
574
550
527
504
484
471
462
462
464
474
492
513
537
562
585
600
610
612
610
599
580
556
528
502
481
466
455
452
455
469
490
513
536
558
575
591
601
603
598
585
566
543
520
498
477
460
448
447
451
465
487
511
537
562
585
607
619
621
617
600
577
552
528
506
487
474
463
458
462
475
494
518
542
566
589
607
615
617
613
599
580
556
529
505
485
468
458
453
455
466
487
511
535
559
579
595
605
607
603
591
572
549
524
500
480
467
458
459
463
477
497
519
541
565
591
612
623
625
619
602
578
549
522
498
476
460
450
448
454
467
487
509
533
558
580
599
609
610
606
590
569
545
521
497
480
467
457
456
462
476
499
525
553
576
594
608
614
615
609
594
572
546
519
494
471
453
442
441
446
457
476
497
521
543
561
578
588
591
587
572
551
524
496
468
444
423
412
410
413
426
447
471
496
516
538
555
564
565
560
546
527
502
476
451
429
412
402
398
401
412
432
456
481
507
529
547
558
561
558
546
526
501
475
451
431
417
409
409
413
423
442
465
490
515
539
558
568
572
568
556
537
514
491
471
453
440
433
435
443
462
486
513
540
564
584
600
610
613
611
600
581
559
536
515
493
478
469
468
475
490
512
539
565
588
607
625
635
637
635
620
599
573
546
522
500
484
476
476
482
497
521
547
574
599
621
638
648
651
647
635
613
588
565
543
522
505
496
494
496
506
527
552
579
605
627
645
653
654
648
632
611
585
558
532
510
492
480
477
480
492
511
534
559
582
600
612
618
619
612
599
580
557
531
506
485
467
455
452
452
463
481
503
524
547
568
586
595
597
590
574
551
524
499
475
454
435
423
421
426
441
462
486
512
537
559
577
588
592
590
577
558
534
510
485
463
445
432
427
429
439
460
486
513
539
559
574
583
586
582
571
551
526
499
474
451
433
423
420
423
434
452
476
500
524
543
559
567
570
567
556
537
515
491
466
445
428
419
417
424
440
463
489
515
539
559
575
585
586
581
570
550
527
502
480
460
443
432
429
432
443
464
486
512
536
557
576
588
591
589
576
557
532
507
484
462
446
435
434
440
454
476
499
525
547
566
582
592
594
588
572
550
524
498
474
453
436
427
427
431
444
465
490
514
538
560
579
590
593
589
577
556
530
504
480
461
446
435
432
435
445
463
487
512
536
556
574
587
593
590
579
559
536
511
488
467
451
444
443
449
463
487
513
539
564
585
601
611
613
611
600
582
560
535
512
489
474
465
463
467
480
503
530
557
583
604
621
633
637
633
620
598
572
546
521
499
482
471
467
469
480
499
522
548
573
595
611
621
625
622
610
591
567
542
518
497
483
474
473
478
492
513
538
563
587
608
623
631
633
630
617
596
571
544
518
493
474
463
460
463
474
494
519
543
566
586
600
609
612
607
592
570
544
518
494
472
455
444
441
444
457
480
506
535
563
586
603
614
617
614
601
581
557
531
506
484
468
459
459
465
480
502
527
552
576
597
615
625
626
619
605
584
560
535
511
489
470
457
452
455
466
487
512
538
563
584
600
611
616
615
602
583
557
529
505
486
472
464
463
469
482
504
527
554
579
601
619
627
631
627
615
594
567
538
511
486
467
455
451
453
463
481
503
527
551
574
592
601
603
597
584
563
537
512
487
467
452
444
443
448
461
484
508
535
561
582
599
609
612
606
592
571
546
522
499
479
464
455
454
459
471
492
513
538
562
582
600
609
612
609
598
578
552
526
503
483
465
454
449
454
464
484
506
530
554
576
592
602
604
599
585
565
540
514
490
470
453
441
435
437
448
467
490
514
539
559
577
590
597
598
588
571
546
518
489
463
438
416
398
387
381
380
382
385
386
385
376
361
339
311
275
232
183
134
90
53
25
12
12
24
51
95
152
214
287
365
449
531
592
638
660
665
656
643
627
610
594
581
573
569
572
583
598
615
633
645
656
663
661
653
639
619
594
568
544
522
503
491
487
493
505
526
550
577
603
624
641
650
651
647
632
611
584
558
533
510
492
480
479
483
494
513
535
559
583
605
623
630
632
625
617
599
574
547
521
496
476
460
453
452
461
479
500
523
547
567
585
596
598
593
580
559
535
508
482
461
445
433
430
433
445
462
484
507
532
555
573
584
587
583
573
555
531
507
483
463
446
437
435
440
451
472
497
524
551
575
592
602
604
599
587
567
542
515
489
466
446
433
427
426
436
455
481
510
538
562
581
592
597
594
582
563
539
513
488
466
450
439
433
437
449
470
494
519
543
564
581
591
594
590
579
558
532
507
482
458
438
426
423
426
436
454
476
499
525
547
563
573
575
570
559
538
513
486
462
439
419
405
401
405
416
438
461
486
511
533
550
561
563
560
549
531
507
482
456
436
420
410
407
409
418
432
454
480
503
523
540
552
558
555
543
523
499
471
444
420
401
388
384
387
398
417
439
465
489
511
529
539
540
535
522
504
482
458
439
422
409
401
398
400
410
429
451
477
501
522
539
548
551
548
537
518
496
468
442
418
399
388
387
395
408
432
459
488
518
544
564
576
581
577
566
546
521
496
472
453
436
426
423
430
444
465
490
517
545
569
590
605
612
612
605
588
567
543
521
503
488
476
474
480
492
512
537
562
586
607
625
636
639
634
622
603
578
552
531
510
495
483
480
484
497
518
542
569
596
620
637
649
653
647
632
611
584
557
531
508
490
478
474
479
490
512
537
565
590
612
629
640
643
638
625
604
579
551
527
506
488
477
474
480
492
512
534
558
582
604
623
633
638
636
623
605
582
558
535
513
497
486
483
487
500
521
543
570
593
614
631
640
642
639
627
607
581
551
524
502
484
475
471
471
480
497
519
545
570
592
611
623
627
624
612
592
566
541
519
497
477
463
458
461
472
492
517
543
569
590
607
617
623
620
609
590
564
536
511
487
469
455
450
449
456
473
494
516
537
557
572
581
583
577
563
541
515
487
460
435
417
404
398
401
414
436
462
486
511
534
555
569
576
576
566
548
527
504
480
458
440
428
425
430
441
461
485
511
537
561
582
593
596
593
581
561
536
511
487
464
446
434
432
435
447
466
490
516
540
561
578
585
586
580
567
545
519
491
465
443
428
417
414
417
428
448
473
500
525
547
563
574
574
568
556
536
512
487
464
443
425
414
411
415
428
448
471
496
520
543
560
569
571
566
552
529
504
477
452
431
416
408
406
410
422
444
470
496
520
542
559
568
572
568
556
535
511
484
461
441
425
414
412
417
430
450
476
505
534
558
579
593
598
598
588
567
540
512
487
466
448
436
432
434
444
463
487
513
539
562
581
591
595
593
581
559
532
502
473
448
429
417
412
414
423
442
467
495
523
547
568
581
585
583
573
555
530
504
477
455
437
428
427
434
448
469
492
515
539
560
579
593
600
599
590
571
547
522
497
476
457
444
438
441
453
473
498
523
546
565
582
593
596
592
580
560
536
510
486
463
444
433
428
433
446
467
491
519
547
572
593
606
610
607
594
572
546
519
493
471
454
443
438
442
455
477
503
530
558
583
601
612
616
612
600
578
551
524
498
475
455
442
437
440
449
467
491
515
537
559
576
587
591
588
579
563
540
514
489
468
450
439
436
440
449
467
489
513
537
559
576
588
594
594
584
565
542
515
488
465
448
437
433
437
449
469
492
517
542
563
580
588
591
587
575
553
529
502
478
453
432
417
411
412
422
441
464
490
515
538
555
564
567
564
553
534
510
484
458
435
415
401
398
402
414
434
460
487
513
536
555
569
575
572
561
543
520
496
472
450
435
425
422
426
438
459
483
511
540
565
583
593
595
589
575
553
527
500
476
453
435
423
419
421
428
444
464
489
516
540
559
574
579
575
563
543
523
499
474
450
432
419
417
421
430
446
467
492
520
545
564
576
583
581
569
549
525
497
473
455
439
428
419
417
420
432
445
459
472
476
476
467
450
426
393
351
305
254
203
157
112
71
40
20
14
25
50
81
118
156
199
242
284
327
368
414
460
494
520
536
547
556
564
577
590
608
628
647
665
678
688
691
687
677
662
638
609
579
552
529
511
498
490
492
497
513
535
561
585
607
625
636
639
634
622
601
576
552
527
508
491
479
474
476
482
500
524
548
574
597
618
629
632
628
617
598
572
543
517
495
475
463
458
460
470
489
512
536
560
585
603
617
622
619
607
586
560
534
508
487
468
455
449
449
459
477
500
526
551
575
596
608
615
614
606
587
562
535
511
487
468
456
453
458
469
488
512
537
563
584
602
612
616
611
599
579
554
529
504
480
463
452
448
451
463
485
509
536
560
583
599
609
615
611
600
580
558
532
508
485
468
455
450
453
463
479
500
520
543
564
580
588
592
588
577
557
534
507
479
452
433
419
412
416
427
448
472
496
520
541
558
569
574
572
562
546
523
498
472
448
430
417
413
416
427
446
469
493
518
540
559
571
577
574
563
543
519
495
472
451
433
420
416
421
433
451
474
500
523
547
567
580
587
585
575
555
528
503
477
455
435
422
415
417
428
448
470
499
527
551
568
580
584
582
571
550
524
497
471
448
432
422
418
423
435
457
483
511
536
556
573
582
584
578
568
543
515
489
465
445
431
422
419
423
431
450
475
503
528
551
568
579
584
581
569
550
527
502
478
457
441
430
427
432
444
465
489
515
539
560
579
591
596
595
587
568
544
519
496
475
458
448
448
454
466
488
517
548
577
603
625
639
646
644
639
622
601
577
551
529
512
502
497
500
510
529
552
578
604
629
646
657
660
656
644
624
599
572
545
521
503
487
479
481
489
508
531
556
583
608
629
640
643
638
627
604
579
552
527
506
489
478
475
479
491
511
536
563
588
611
630
642
647
646
636
619
596
572
547
526
507
496
491
492
500
518
539
563
588
608
627
639
642
640
631
613
590
563
540
517
498
485
478
480
489
507
529
555
582
605
624
636
640
637
626
606
580
550
521
495
476
463
457
460
469
489
513
540
564
586
604
617
622
619
609
588
562
535
507
481
460
446
439
440
451
468
492
516
540
563
582
596
604
603
595
575
551
526
501
477
460
449
448
455
468
489
512
537
563
585
605
618
624
621
612
590
564
539
514
493
475
459
451
455
465
484
507
533
559
583
601
614
619
615
606
586
562
535
508
482
461
447
440
441
451
469
494
520
548
572
590
601
608
605
594
575
549
523
496
474
456
443
438
441
450
466
487
510
533
558
576
591
596
594
583
564
539
511
483
459
439
426
420
419
426
444
467
490
515
537
556
568
574
574
567
549
527
501
478
455
436
423
417
417
425
444
466
489
512
534
552
563
567
565
555
536
513
488
463
440
420
409
407
412
423
444
468
494
519
541
560
572
580
579
570
551
527
501
477
454
434
420
416
417
426
446
470
499
524
547
566
580
588
588
580
561
537
511
484
461
441
427
418
420
430
447
468
494
519
543
562
576
583
581
573
553
529
505
481
460
441
428
422
423
432
451
478
505
533
558
577
589
591
586
573
548
519
490
464
443
427
416
412
414
423
440
464
489
514
536
555
567
572
572
564
546
521
496
468
444
423
409
404
407
413
429
451
477
504
528
546
558
563
558
547
527
502
476
452
430
410
397
390
392
399
417
440
467
494
517
536
548
553
553
546
529
507
482
457
436
418
406
401
403
412
430
451
476
499
521
539
552
558
556
547
527
504
477
453
431
411
396
388
390
400
422
447
474
502
526
547
563
572
572
564
547
526
502
477
455
436
423
415
415
424
444
467
494
521
545
564
577
583
581
572
553
530
507
482
457
439
427
420
422
428
446
470
496
523
546
566
579
586
586
579
561
536
507
480
455
437
422
415
417
427
446
469
496
519
541
558
570
576
575
570
555
534
510
484
463
444
434
430
434
445
465
490
518
545
570
590
602
606
601
588
568
542
514
487
461
440
425
417
418
426
446
470
500
528
555
576
591
601
599
590
569
543
515
487
461
441
426
419
421
429
448
471
498
524
548
568
580
584
579
568
547
523
497
472
449
429
416
411
413
422
440
464
492
518
544
564
578
583
583
577
561
538
510
483
458
437
423
417
420
428
447
471
497
522
545
564
579
588
585
575
555
529
503
476
450
429
413
405
408
420
444
472
501
529
553
574
588
594
591
584
566
543
517
492
468
448
436
433
439
451
472
498
526
556
583
603
616
623
620
612
590
568
542
516
494
475
462
455
457
465
484
507
533
557
577
593
605
611
607
596
576
551
524
496
472
453
441
434
435
443
463
490
519
547
570
588
600
605
602
593
573
548
519
493
471
451
436
429
430
438
455
477
503
529
552
572
587
595
593
584
566
542
514
486
460
440
427
422
424
436
458
484
513
541
567
588
601
609
607
600
582
558
530
505
483
464
448
440
448
463
486
511
540
570
595
619
636
645
644
636
617
594
567
541
515
492
475
467
466
474
492
515
541
567
591
614
627
631
628
620
600
577
551
527
504
484
472
468
470
477
496
518
544
569
592
611
626
636
634
623
600
570
536
502
468
439
414
394
380
372
374
380
386
394
396
389
375
352
322
284
232
176
122
76
39
11
0
0
0
12
50
102
161
229
307
401
491
566
625
661
674
671
656
634
611
588
568
556
550
553
570
591
615
640
665
684
698
704
702
693
672
645
613
582
555
534
520
513
515
523
542
566
592
620
644
664
679
683
679
671
650
623
594
567
542
520
507
504
507
515
535
558
584
609
633
653
665
671
667
657
637
611
579
548
523
504
490
482
481
489
504
526
550
575
600
618
631
635
631
622
602
578
551
525
500
478
460
449
448
454
469
489
515
540
564
585
601
609
607
599
578
556
528
499
471
448
432
425
425
432
450
473
499
524
547
565
578
584
583
575
555
530
501
471
446
424
409
403
403
409
427
449
475
501
526
549
566
573
572
563
542
516
487
460
437
415
399
390
387
394
412
438
466
494
520
542
558
566
564
558
540
515
486
456
432
411
395
387
385
389
406
428
454
480
503
524
537
542
540
532
514
491
464
437
414
394
380
376
380
391
412
436
463
491
515
536
549
556
555
549
531
509
483
457
436
419
406
402
406
419
441
468
499
528
553
573
587
593
595
594
579
560
534
506
480
457
439
428
427
433
449
470
495
520
544
563
575
580
579
571
552
528
502
475
451
430
414
405
405
413
431
452
476
499
524
544
558
566
565
557
538
514
487
460
435
413
395
387
387
396
415
442
472
500
526
548
563
570
568
561
542
519
491
465
445
428
415
409
412
422
440
463
489
516
541
564
580
591
592
588
573
552
526
498
474
453
438
432
434
442
461
487
515
546
573
595
612
621
623
617
600
578
550
524
503
484
473
468
470
478
497
520
545
571
595
615
630
638
638
631
613
590
564
538
515
495
480
475
477
484
502
524
551
575
599
619
632
638
635
627
609
584
556
528
502
480
466
461
465
474
493
519
546
574
599
621
639
646
645
638
619
596
567
540
518
497
482
473
473
481
497
519
545
573
598
617
633
641
641
635
618
595
569
539
513
490
473
465
465
473
490
512
539
564
588
608
624
633
632
624
603
579
552
525
501
479
463
453
451
459
477
500
528
557
584
607
622
630
630
623
605
581
551
524
497
473
455
444
443
450
468
490
515
542
566
587
602
609
609
600
583
558
529
502
478
457
441
432
432
440
461
487
517
546
575
597
613
623
621
612
593
568
541
515
491
468
452
445
443
449
465
487
512
538
562
582
595
601
599
591
573
549
524
497
475
455
440
434
434
441
460
484
512
538
563
584
600
607
606
600
583
560
531
504
480
457
440
430
429
435
452
477
506
535
562
586
603
611
611
603
584
559
528
498
471
449
435
430
432
443
462
488
516
541
568
590
606
613
612
606
587
560
531
503
477
455
440
433
435
444
464
488
518
548
575
596
611
616
613
607
590
568
541
515
491
472
459
451
454
463
481
507
534
563
588
608
622
629
627
618
600
576
548
520
494
471
456
447
445
449
464
486
513
541
564
585
600
609
609
604
586
563
535
508
481
460
445
438
437
443
460
482
507
532
556
579
595
602
601
591
570
544
515
486
459
436
419
410
409
415
433
457
484
513
539
559
571
578
578
571
553
529
502
474
449
431
416
409
410
419
436
459
487
515
539
559
575
583
583
576
559
536
510
481
455
434
417
409
410
418
435
457
485
513
538
559
574
582
579
571
551
527
497
466
439
416
399
388
388
396
415
441
470
499
526
548
566
575
577
569
551
526
496
468
441
420
404
397
398
408
427
453
481
510
534
556
571
580
582
575
557
533
505
480
455
432
416
407
409
418
437
463
492
521
549
570
586
596
595
588
570
546
518
490
464
444
427
417
415
421
440
464
492
521
547
570
585
592
592
585
567
543
513
481
453
431
415
406
408
414
430
453
481
509
535
555
570
578
578
572
555
531
505
478
451
428
409
399
398
403
419
441
467
496
522
545
564
575
576
569
551
525
495
466
439
418
404
398
400
410
429
454
482
510
537
558
573
580
577
568
548
523
494
463
434
411
394
386
388
396
412
436
464
491
518
541
558
566
567
558
542
516
486
455
429
405
386
375
374
380
397
423
452
483
511
534
551
560
559
553
537
516
489
460
436
414
399
390
388
394
409
430
456
483
510
532
550
560
560
554
537
513
487
460
435
412
397
390
391
398
414
437
465
494
521
546
563
572
573
567
551
527
500
472
448
427
413
404
406
414
432
455
482
511
537
560
576
586
587
583
566
542
514
486
460
438
421
412
409
414
429
453
482
510
538
563
582
594
599
595
583
563
542
518
498
481
468
460
459
465
481
506
534
563
592
617
636
646
647
641
623
599
572
543
517
495
478
470
470
478
497
523
552
581
608
630
646
654
655
648
630
604
576
546
520
499
483
475
473
480
497
521
550
578
604
627
643
651
650
644
625
600
572
543
515
492
478
470
471
479
495
516
542
570
595
617
632
640
643
640
626
603
577
548
521
498
482
474
474
480
496
518
546
574
601
622
637
644
644
638
621
595
568
540
515
496
479
469
470
475
490
510
535
559
582
600
615
622
620
614
596
571
541
511
485
462
443
432
429
437
455
479
506
535
563
588
605
615
617
613
595
571
543
513
487
464
446
434
431
435
453
476
504
530
555
576
591
601
604
600
586
564
539
514
491
468
450
440
436
436
445
458
475
489
501
507
506
498
478
449
412
365
315
263
214
168
127
90
62
47
49
65
90
121
156
193
232
271
305
335
361
389
426
458
486
506
518
529
543
556
575
598
623
649
673
690
702
707
700
689
669
642
612
582
553
527
509
498
497
503
517
540
566
593
620
643
661
672
675
671
655
632
605
577
550
525
506
495
492
496
511
531
558
585
611
634
652
662
660
654
637
612
583
552
524
498
478
466
463
468
483
504
531
558
585
607
622
632
632
628
612
590
563
533
506
483
464
455
455
461
478
499
524
550
575
597
612
621
622
617
601
577
550
520
495
472
453
443
444
451
467
489
515
540
566
588
605
616
619
614
598
575
548
522
497
475
456
446
443
449
466
487
512
538
563
585
603
614
615
611
596
573
545
519
496
474
459
450
448
453
467
484
509
534
557
577
594
604
604
596
578
554
526
499
473
450
432
421
418
422
434
454
479
503
528
551
568
580
583
577
564
541
513
486
458
433
418
407
401
403
416
438
463
490
517
540
558
567
568
561
545
523
498
471
446
425
409
399
397
403
420
446
472
499
526
548
564
572
573
569
554
531
504
475
448
423
404
395
394
399
414
437
463
489
516
539
556
569
574
571
558
538
513
484
458
436
419
408
407
412
428
450
478
506
533
556
572
582
582
575
558
532
504
474
445
422
403
392
390
395
409
431
456
482
508
528
542
551
552
548
534
512
486
460
435
412
394
383
380
385
399
422
448
476
503
526
545
559
564
563
551
530
505
480
457
440
427
419
421
429
446
472
500
527
555
579
600
612
615
613
599
577
551
524
498
474
455
447
448
459
477
502
530
558
585
610
628
640
642
637
620
596
568
541
515
492
474
465
465
470
482
504
534
563
591
616
635
646
650
647
633
610
583
555
529
504
482
469
465
470
485
509
536
564
591
617
635
644
646
639
622
598
569
540
512
488
469
457
454
458
470
492
519
547
573
594
612
623
624
619
602
578
551
523
496
472
454
443
441
447
463
485
513
542
569
591
607
618
619
611
594
570
542
512
485
460
443
435
435
440
454
475
502
529
556
579
596
606
608
603
588
563
535
506
479
453
434
423
420
424
436
454
480
506
531
553
571
581
584
579
566
543
515
487
458
434
417
406
403
409
423
447
472
500
528
553
573
586
589
584
570
546
518
489
461
436
418
408
407
413
428
450
476
502
530
555
574
584
587
583
567
543
516
488
462
439
420
409
407
412
426
447
471
496
520
542
559
570
572
569
554
532
508
480
453
429
409
397
394
398
413
438
467
498
525
551
570
582
584
579
564
540
511
480
451
428
411
400
398
405
422
445
471
498
525
550
569
580
583
580
567
544
518
492
467
446
429
420
419
427
441
465
491
518
545
568
584
594
596
591
577
556
529
501
474
450
432
420
417
422
436
462
489
517
545
571
590
604
608
603
589
565
536
505
478
453
433
420
417
423
436
456
480
507
533
558
577
589
593
590
577
558
534
507
481
458
438
427
423
427
440
463
491
519
547
569
588
599
601
597
582
559
532
504
479
455
436
425
424
432
447
469
496
525
553
577
595
606
608
602
587
565
538
510
481
458
439
429
426
432
446
470
496
524
553
577
595
607
608
603
590
568
542
514
489
465
446
434
431
437
451
473
501
528
558
583
603
615
618
612
597
571
543
514
487
466
449
440
437
441
456
479
507
535
560
582
600
612
616
611
597
573
544
515
487
464
444
432
429
432
444
464
490
519
545
569
587
598
601
597
585
563
536
508
481
456
437
426
423
428
440
462
489
516
543
566
585
598
600
597
584
561
534
504
477
454
437
428
425
430
443
465
490
517
542
567
586
598
601
598
585
563
539
510
486
466
452
442
442
448
462
484
510
537
566
590
608
619
622
617
603
579
551
523
496
472
453
441
437
442
455
478
503
530
556
577
594
603
604
599
583
558
531
504
476
452
434
424
422
428
442
467
494
522
549
574
592
604
607
603
591
569
544
518
495
473
454
443
438
441
455
479
506
533
560
583
601
614
617
615
605
584
558
531
506
483
465
453
447
451
464
487
517
548
579
606
628
643
648
647
634
611
584
557
529
505
486
475
472
476
488
511
536
564
591
616
635
647
652
651
639
615
588
559
532
508
488
475
469
470
480
500
525
552
581
605
624
636
638
632
620
598
571
542
514
488
469
456
451
454
467
489
516
544
572
597
617
629
633
629
615
592
563
531
503
477
456
442
437
440
451
472
497
525
551
575
593
605
607
601
587
564
536
505
477
451
430
414
408
411
423
447
475
504
533
560
580
592
598
595
584
563
536
510
483
461
442
430
426
429
440
461
487
515
543
566
584
596
600
596
584
559
532
502
475
450
431
418
414
417
431
455
483
512
540
565
583
593
597
594
582
561
537
509
482
460
443
433
432
438
452
478
506
535
564
590
611
625
632
628
615
594
566
535
506
481
461
448
443
447
457
477
502
529
556
580
600
611
615
611
598
576
548
519
492
468
448
435
432
435
445
465
491
519
547
570
588
599
601
595
583
558
528
497
470
445
423
411
408
416
433
459
487
513
538
556
568
573
568
553
528
489
446
398
349
300
257
222
196
180
171
174
182
189
194
200
206
212
217
221
221
215
211
211
215
230
254
291
346
405
463
520
574
620
662
698
723
737
739
731
711
680
647
610
575
543
517
499
491
491
499
518
542
569
597
622
640
652
655
650
636
614
587
556
528
503
482
469
464
468
479
500
523
550
577
601
618
627
629
624
610
587
557
527
499
475
453
437
431
435
447
469
496
524
552
576
595
607
610
605
591
567
536
505
476
448
426
414
410
414
426
448
473
504
532
559
580
595
600
598
585
563
536
506
479
456
438
427
424
428
438
459
481
506
529
551
569
581
585
582
568
545
519
491
465
440
421
409
406
412
423
443
467
496
524
550
571
584
591
588
577
554
527
497
470
446
424
410
402
405
414
434
459
485
513
537
556
569
574
570
558
534
508
478
449
423
402
388
384
391
404
428
457
487
516
542
565
580
585
583
575
555
530
502
474
449
427
413
407
408
418
439
465
496
525
551
572
586
591
588
577
553
524
493
463
434
411
397
391
391
401
423
450
480
509
535
557
571
577
573
561
540
513
485
457
432
411
397
391
394
406
428
455
482
509
533
554
567
572
569
560
538
511
481
453
428
408
396
392
395
405
426
454
483
511
536
553
565
570
566
554
531
505
474
445
421
400
387
382
387
398
419
444
472
499
525
545
558
563
559
547
525
499
471
443
417
396
383
377
379
389
409
434
463
493
519
541
555
560
556
545
524
499
470
443
419
400
389
386
390
400
422
449
478
507
534
556
573
581
582
574
553
530
504
480
457
440
430
428
433
446
467
494
525
558
586
610
627
637
637
628
607
581
553
526
500
478
462
455
458
469
493
521
552
584
612
636
652
659
657
646
623
596
568
540
517
500
489
487
491
502
523
550
578
606
630
650
663
669
665
654
631
602
571
542
515
493
480
476
480
491
512
535
562
588
611
628
639
644
640
629
607
580
552
526
501
482
469
465
470
482
505
529
558
583
607
625
637
641
640
629
607
582
552
524
496
473
457
450
452
461
480
507
536
564
590
609
622
627
623
613
591
565
536
508
484
462
448
440
441
449
470
495
522
550
575
595
610
617
616
608
589
564
535
507
482
463
449
446
450
461
482
508
536
564
589
609
624
630
628
618
595
570
543
517
496
479
467
462
464
474
493
518
545
573
599
620
635
641
639
629
607
579
547
518
495
475
462
456
460
471
493
519
548
575
600
620
634
637
635
627
607
581
554
526
499
477
463
458
461
470
491
516
544
572
596
618
635
641
639
632
611
585
556
528
503
482
466
457
457
463
484
510
540
568
594
615
632
636
632
620
600
574
544
515
491
471
459
451
453
463
484
511
539
566
591
612
627
633
630
619
597
570
540
510
482
460
444
436
437
448
469
493
519
546
572
593
607
613
609
600
581
555
524
496
470
448
435
428
431
440
460
485
512
539
565
586
601
609
608
597
577
553
527
499
474
454
440
435
439
447
465
491
519
547
571
590
602
609
604
593
572
546
518
489
464
442
428
421
423
432
451
476
504
532
556
575
587
591
584
571
548
522
492
462
436
415
402
398
403
415
439
466
497
529
559
582
600
608
606
596
575
549
520
491
464
442
426
419
422
433
453
478
505
534
562
584
599
605
603
596
578
555
527
498
473
450
434
425
427
435
455
482
511
540
568
590
604
608
607
599
579
555
526
495
468
445
431
422
423
433
453
480
510
538
561
581
596
602
600
591
571
544
515
487
463
441
427
421
423
432
453
479
507
535
561
581
595
602
601
594
574
551
524
495
470
448
431
422
423
430
447
471
499
528
554
575
590
597
593
582
560
532
503
474
447
424
409
401
403
414
433
458
488
517
541
561
575
583
582
575
556
530
503
476
451
431
417
410
412
421
443
468
495
521
545
566
582
589
588
580
560
536
507
479
452
431
418
412
413
422
441
468
498
526
552
574
590
596
594
585
566
539
509
478
452
431
417
410
412
419
440
466
496
524
550
570
584
590
587
575
552
526
496
468
444
425
412
407
409
417
435
460
488
517
544
567
583
591
593
587
567
540
508
478
450
428
411
403
404
412
431
454
483
511
536
557
571
579
578
571
552
529
502
473
448
426
409
400
400
409
429
455
483
512
538
559
574
580
576
565
543
516
487
461
435
415
402
398
401
411
433
462
493
521
547
567
580
587
586
578
558
530
499
469
442
420
403
396
399
409
429
456
485
513
538
559
573
580
579
570
549
525
494
464
436
413
397
391
393
403
425
451
480
510
537
560
575
583
582
575
555
529
501
473
450
432
417
408
406
409
420
435
452
468
481
488
486
472
448
415
373
325
272
222
175
134
99
72
52
42
46
62
93
129
169
210
251
288
319
351
377
404
439
467
491
509
520
531
546
566
593
623
651
675
694
706
712
711
703
691
668
637
604
572
543
518
499
490
490
498
517
541
570
598
622
644
660
667
664
656
636
610
583
555
528
508
492
483
483
488
506
529
557
583
606
627
646
655
655
646
626
601
573
544
517
495
479
469
468
474
491
514
542
568
593
615
631
639
639
632
614
590
561
533
507
483
465
458
460
468
487
509
533
557
580
601
615
624
623
615
594
568
540
511
486
463
447
438
438
448
467
492
519
546
571
591
606
612
610
603
582
556
526
496
467
444
426
417
417
422
440
463
490
518
542
561
576
582
580
571
551
527
499
468
440
418
401
391
391
398
419
445
477
510
541
567
585
593
592
584
565
542
513
485
460
439
423
415
418
427
447
472
499
527
553
575
589
595
594
585
565
539
510
482
460
439
424
417
420
428
449
475
503
531
559
581
596
604
602
594
573
547
519
492
466
444
431
422
422
427
446
471
500
529
555
576
591
598
596
588
568
541
512
485
460
439
422
415
418
428
448
472
497
523
547
568
584
594
595
588
569
543
514
485
459
437
423
415
416
424
441
461
486
512
537
559
575
584
583
576
558
532
505
475
448
424
407
398
399
407
425
449
478
508
536
560
577
586
586
578
558
531
500
470
443
418
401
391
393
402
423
449
481
513
541
564
582
590
590
584
566
541
515
489
468
452
440
436
441
451
472
497
528
559
588
614
630
637
636
627
608
582
556
527
500
477
462
456
458
469
492
519
550
580
607
631
645
652
652
646
629
604
574
546
521
499
482
473
474
481
500
527
558
590
618
640
657
665
664
656
636
608
577
545
518
496
480
473
473
482
502
526
552
580
606
628
643
652
650
640
621
592
562
531
504
483
468
461
462
469
487
510
537
565
591
612
627
635
635
628
609
583
552
522
494
468
449
438
436
442
460
482
509
538
562
583
600
608
607
598
577
552
523
494
467
447
432
424
425
432
449
472
499
528
554
575
591
600
596
584
564
537
507
476
449
427
414
407
409
417
435
457
484
514
541
567
586
598
603
600
586
566
543
518
495
474
459
451
450
458
478
503
532
560
587
608
624
633
633
624
603
573
543
513
486
463
448
440
442
450
469
492
520
547
575
596
611
619
620
614
591
561
529
497
467
444
429
421
423
431
450
476
503
531
557
580
595
601
601
592
572
547
519
490
462
438
421
414
415
423
443
467
496
526
551
573
589
596
595
587
567
540
510
479
451
430
413
404
405
415
434
458
486
515
542
564
579
588
587
577
557
529
500
470
443
420
404
395
396
402
420
444
472
500
527
549
563
572
572
563
545
519
490
461
433
410
392
383
382
387
404
429
460
492
523
548
566
575
576
571
555
532
508
481
456
435
419
413
415
424
446
473
505
539
569
595
613
623
626
622
606
583
556
529
505
483
467
458
458
464
480
504
529
556
580
600
615
623
622
615
596
569
539
510
483
460
442
431
432
438
455
480
508
537
565
590
609
619
619
612
593
568
538
508
480
456
440
430
429
436
454
478
505
533
560
584
600
608
608
601
583
556
527
498
470
446
428
419
422
431
449
475
501
527
551
570
583
586
582
572
552
526
497
467
440
417
400
391
393
400
419
444
474
504
531
556
574
585
588
584
568
547
521
495
469
447
430
423
424
432
453
478
506
534
558
580
596
604
604
596
578
554
524
496
470
449
433
424
424
432
449
472
498
524
547
567
583
591
593
588
571
544
513
483
454
432
415
406
405
411
430
454
480
505
531
551
564
572
573
567
551
527
498
469
442
420
405
397
399
409
429
456
486
517
547
572
591
600
601
595
578
552
525
496
471
449
432
423
423
428
445
468
495
521
545
565
582
590
590
583
563
537
508
477
449
424
405
399
399
406
423
445
475
505
534
558
577
586
589
583
566
543
517
492
468
447
430
421
419
425
444
468
496
525
551
575
591
600
600
593
576
555
528
502
478
458
443
432
430
435
452
475
500
529
553
573
588
598
598
590
571
546
516
486
458
436
418
408
409
416
433
454
480
507
533
555
570
577
577
570
554
530
504
478
454
433
417
408
408
417
436
462
490
519
546
569
587
597
600
593
576
553
523
494
465
444
428
419
418
427
445
470
498
526
551
574
590
599
598
591
573
547
516
487
459
437
422
413
410
413
428
450
478
506
531
551
568
577
579
572
556
534
507
481
455
433
417
411
413
424
445
471
497
524
546
561
571
573
564
548
520
483
436
386
335
291
253
220
196
179
173
175
178
180
182
184
185
191
194
193
185
174
165
162
167
182
208
252
316
378
445
511
570
623
667
702
727
739
737
725
702
670
635
600
567
538
515
500
496
499
512
532
558
586
611
635
654
664
667
659
641
615
587
558
533
512
497
488
486
487
499
520
544
571
596
619
635
641
639
628
608
583
553
523
495
473
455
445
444
450
465
487
513
540
564
585
600
609
609
602
586
563
537
511
487
466
451
442
440
446
463
486
512
538
563
585
601
610
610
602
585
562
535
509
483
462
448
441
443
447
462
484
511
539
565
588
607
616
617
609
592
568
540
512
486
462
444
438
438
444
460
484
511
536
560
584
603
611
610
604
585
561
532
503
476
452
433
420
419
427
442
462
487
513
540
561
578
586
586
579
566
544
520
495
471
453
440
433
434
441
457
479
505
532
558
582
597
608
610
602
584
560
531
500
470
446
429
418
416
422
437
460
488
517
546
572
591
603
606
603
589
567
541
515
489
468
453
444
444
449
467
490
516
544
571
595
613
622
624
618
603
579
551
522
495
472
454
445
444
448
463
487
514
541
566
589
606
616
618
611
594
572
545
517
489
465
444
432
429
433
448
470
496
523
548
570
587
597
599
591
575
553
525
497
470
447
429
419
417
422
437
458
484
512
537
561
580
593
598
593
577
552
523
492
463
439
419
408
407
411
427
449
476
504
530
554
571
580
582
577
561
538
511
484
459
439
424
416
416
423
440
464
492
522
550
575
591
601
603
599
586
568
545
520
496
473
456
447
448
455
471
494
519
549
577
601
619
630
633
628
615
593
568
542
517
496
480
471
469
475
491
515
542
569
594
615
632
640
644
639
624
603
575
549
522
498
480
466
463
467
480
502
527
557
584
607
625
636
636
630
615
593
567
540
512
489
472
460
458
462
478
501
527
555
580
604
620
630
631
624
608
581
552
523
495
473
455
444
441
443
458
482
510
537
561
582
597
605
607
601
583
560
533
504
477
455
437
424
420
423
436
457
483
508
532
556
574
584
584
577
560
535
506
477
450
428
412
404
403
409
425
449
478
508
535
559
577
587
589
583
568
545
519
491
467
446
430
419
417
423
440
466
496
527
557
583
602
613
617
614
601
579
554
528
502
481
467
459
459
465
483
508
536
565
592
617
635
643
643
636
620
595
565
535
508
485
468
455
451
454
468
491
518
546
573
599
617
627
628
621
604
580
551
522
496
474
455
444
440
443
455
479
506
535
560
582
600
607
607
599
584
561
534
507
480
455
435
422
420
424
439
462
487
513
538
560
577
588
591
586
572
549
521
494
467
444
424
412
411
416
430
453
481
510
536
559
576
587
589
583
566
542
514
487
461
440
421
411
407
410
423
444
469
494
521
545
563
573
575
568
553
529
504
476
450
427
408
396
392
395
408
430
456
485
513
538
559
571
574
571
558
539
512
485
458
434
417
408
407
413
427
449
473
501
526
548
565
575
576
572
559
539
513
487
464
442
424
412
409
414
430
452
482
513
543
568
588
598
600
594
580
559
533
505
480
460
443
435
432
440
455
476
501
529
556
583
603
615
618
614
599
576
549
518
488
463
441
425
419
420
431
450
475
500
524
547
564
574
577
572
557
534
507
479
454
433
418
410
409
415
428
451
476
503
530
554
574
585
589
585
571
547
520
492
468
446
429
420
419
425
440
465
492
520
547
571
591
603
608
606
593
572
546
520
494
472
455
444
441
448
463
487
516
544
570
591
608
618
620
614
600
577
550
521
495
474
457
447
448
455
470
493
518
544
570
593
610
620
620
611
595
571
543
515
489
466
449
440
438
444
460
483
510
540
568
594
614
627
632
626
612
591
565
535
506
481
462
452
451
456
470
491
515
542
568
591
610
619
622
617
604
581
555
527
502
481
463
451
448
453
469
493
518
547
573
599
617
630
635
630
615
593
566
537
511
489
470
460
459
466
480
501
527
556
584
609
628
640
643
638
623
599
572
544
516
492
472
460
457
460
471
492
516
544
571
594
614
627
632
630
618
596
570
543
516
492
473
460
457
460
472
491
515
543
569
593
611
622
625
620
607
584
558
529
501
477
459
447
444
448
464
486
513
541
567
588
607
615
617
612
596
570
541
511
483
457
436
422
417
419
432
455
479
507
533
558
578
591
594
587
575
554
527
501
474
450
432
418
412
412
421
440
463
492
518
543
564
579
587
584
575
554
527
498
467
438
411
390
378
372
373
379
385
391
396
399
398
391
376
349
316
275
224
171
120
78
47
32
33
47
73
111
158
213
272
333
396
463
528
578
611
625
627
620
607
592
577
566
560
558
564
580
601
624
643
661
673
680
681
674
658
634
605
576
548
522
502
488
483
487
497
516
540
566
590
613
632
643
647
641
628
608
582
552
525
501
482
469
464
467
480
500
525
553
579
603
621
632
636
631
619
597
569
538
508
484
464
449
443
446
457
479
505
532
559
583
602
612
615
608
595
570
541
512
484
462
444
434
432
436
451
475
503
533
561
587
607
620
626
621
608
585
560
532
507
483
464
451
446
450
463
483
507
533
557
581
601
612
616
610
598
575
547
518
491
468
447
434
433
439
453
475
504
535
564
590
610
621
624
620
606
582
553
521
492
465
443
427
423
428
440
463
489
516
543
568
587
599
603
599
587
567
540
511
482
460
441
428
425
430
446
469
496
527
555
580
601
613
617
613
599
574
545
514
484
459
439
428
426
431
443
464
487
514
539
562
581
592
594
588
574
551
523
493
464
440
418
403
397
401
416
438
462
489
513
534
550
560
563
556
540
516
489
461
434
411
389
374
368
370
382
403
431
461
489
515
535
547
551
543
529
505
476
446
417
391
369
357
353
358
372
396
424
455
484
512
533
547
553
548
536
512
485
456
430
405
385
371
367
367
376
396
420
449
478
504
525
537
543
541
531
511
485
456
430
408
390
380
379
385
400
426
455
486
514
539
561
575
583
581
572
553
529
502
474
450
431
420
418
423
437
461
489
521
552
580
603
617
624
621
609
588
563
535
510
486
468
457
455
460
473
496
520
550
577
603
623
637
643
639
628
607
579
551
521
496
475
462
459
464
476
497
524
553
582
608
630
645
652
647
636
614
588
559
530
506
487
474
472
478
489
512
540
569
597
621
639
648
651
645
633
612
588
560
532
509
489
476
472
472
480
499
521
551
579
605
625
639
644
640
628
608
579
548
518
492
472
457
451
453
464
486
513
540
567
593
615
630
637
634
623
601
573
543
513
487
464
450
447
451
462
484
511
542
573
600
622
636
642
638
626
603
575
547
520
496
476
461
454
456
465
484
507
533
559
582
601
612
614
605
590
564
535
503
472
448
428
415
411
414
424
445
470
499
526
551
570
581
586
580
567
544
518
490
461
436
416
404
401
408
423
445
470
498
525
548
567
580
586
584
573
552
527
500
473
448
428
414
410
415
429
452
479
509
537
563
585
599
603
596
583
562
536
507
480
457
440
428
425
429
442
464
492
522
551
579
599
612
618
615
607
587
561
535
508
483
464
449
445
448
460
482
509
538
566
590
609
620
626
624
615
594
568
541
513
491
473
463
460
465
477
496
519
543
569
595
617
632
639
635
623
600
575
548
521
498
479
467
462
463
472
491
516
543
571
596
616
628
632
625
609
585
558
529
501
476
455
441
439
441
454
476
501
530
559
585
607
620
627
625
615
595
569
544
517
495
477
464
460
463
474
498
527
558
586
611
632
646
652
647
637
615
588
560
529
504
483
468
460
462
471
492
519
548
578
604
623
636
640
636
623
600
572
543
514
487
465
449
442
444
453
474
499
528
556
580
601
615
622
621
611
589
561
531
503
478
457
444
441
445
457
478
505
537
566
592
614
628
634
630
618
595
568
537
506
476
453
436
428
428
438
457
482
510
539
566
588
601
608
605
596
576
550
521
493
467
445
429
421
422
431
451
476
502
525
547
563
573
576
572
560
537
509
478
449
426
407
395
391
395
404
426
451
479
506
531
552
566
574
571
560
540
514
487
459
437
419
410
408
414
425
446
471
499
522
544
563
574
578
574
565
545
520
492
463
440
422
410
407
412
423
444
470
501
529
556
576
590
597
594
584
564
537
509
479
454
431
415
408
408
419
441
470
503
531
557
576
589
597
595
587
568
540
511
483
457
436
422
417
417
423
444
469
499
527
552
572
585
592
591
581
559
531
502
470
444
422
406
399
403
413
435
461
489
516
541
562
576
583
579
568
546
519
491
462
438
417
405
402
407
417
438
463
491
518
543
566
581
588
588
578
556
530
503
477
455
436
422
417
419
429
449
473
501
527
551
571
583
586
582
571
550
524
496
466
441
420
408
404
408
419
440
467
496
523
549
571
585
593
592
583
561
535
506
476
451
430
415
409
410
418
436
460
490
518
547
571
588
596
595
583
557
524
491
457
424
395
372
355
344
335
333
335
341
346
348
346
337
319
295
260
214
169
123
83
56
42
40
52
79
119
175
240
316
400
490
571
634
681
706
714
707
691
670
644
619
594
572
556
548
549
562
580
604
626
647
664
672
673
666
649
624
594
563
533
507
483
465
459
459
467
488
513
543
570
595
617
631
638
636
625
603
576
547
519
492
470
453
444
445
455
474
499
526
551
575
597
612
620
619
609
589
565
539
512
489
470
457
451
452
461
480
502
529
555
579
598
608
612
607
596
575
551
523
493
466
444
428
420
421
430
451
479
508
535
560
581
596
602
598
588
568
540
510
483
459
437
423
416
418
429
450
477
507
537
566
588
604
611
608
599
579
554
527
498
473
452
438
431
431
439
457
480
508
536
562
582
595
604
603
596
576
551
523
493
465
443
427
420
422
429
447
472
501
529
556
579
597
605
605
595
575
549
522
494
468
446
431
425
424
429
447
471
497
522
546
567
582
589
587
577
557
533
507
479
454
433
417
410
411
418
435
460
489
519
544
565
580
588
586
577
558
534
506
479
455
434
418
410
410
417
435
456
480
504
528
547
558
562
558
548
528
503
474
447
421
399
385
376
373
380
396
418
448
480
511
540
561
575
579
574
559
537
512
488
465
448
434
428
430
441
462
489
518
547
573
596
611
618
617
609
590
564
535
507
483
463
448
444
448
458
478
504
533
559
582
600
611
616
613
607
590
568
543
516
494
472
457
451
451
460
479
499
525
550
575
600
618
630
633
629
612
591
567
541
518
499
484
478
483
493
514
540
571
600
626
647
662
671
669
661
643
621
595
568
545
525
513
510
514
525
546
573
602
631
656
678
694
704
705
697
678
653
626
599
574
555
540
532
532
539
556
579
608
633
659
680
696
704
703
696
676
652
626
598
574
552
536
531
533
539
555
575
600
625
649
670
687
695
695
690
671
646
617
588
562
540
523
514
513
519
538
561
588
616
641
660
672
679
676
668
648
622
593
563
537
515
497
489
490
497
517
542
569
593
617
635
647
655
652
643
625
601
574
545
518
496
480
472
471
478
491
511
534
558
581
601
615
624
622
614
596
572
545
517
492
471
456
448
448
455
472
493
519
543
568
588
604
612
610
600
581
557
529
501
476
455
437
427
425
430
446
468
495
521
547
569
585
595
596
589
571
548
521
494
471
453
437
428
427
433
449
472
496
520
543
563
579
588
586
578
560
536
510
482
457
435
420
412
412
420
439
462
486
511
535
556
572
581
581
573
555
531
506
480
455
435
420
413
414
420
434
455
480
504
526
546
561
571
571
565
548
524
499
473
451
433
420
415
419
431
451
475
503
529
558
579
592
599
598
589
569
543
515
487
463
443
431
425
426
435
455
479
506
533
559
580
592
600
599
590
572
549
523
494
467
445
429
420
418
424
441
464
490
516
539
559
573
579
576
567
547
521
492
463
439
419
404
397
398
406
423
446
472
498
523
545
562
571
570
562
544
522
496
469
444
422
407
399
399
408
426
449
478
507
534
557
573
583
584
578
561
537
508
480
454
435
421
414
413
417
432
452
479
504
529
551
568
581
583
578
561
538
513
487
463
441
427
420
422
430
448
471
497
523
549
570
585
593
592
587
571
547
519
491
465
443
425
415
413
419
435
459
486
514
539
560
576
585
586
579
560
536
510
481
454
431
414
405
405
412
427
449
476
503
526
547
563
571
570
562
545
522
497
471
445
423
406
396
396
405
424
447
472
500
526
549
567
576
577
571
553
530
503
472
444
422
406
398
399
406
422
444
470
496
520
540
556
564
564
558
540
515
488
459
432
412
395
387
388
395
414
437
464
493
519
541
557
566
565
557
538
513
483
455
429
410
398
393
396
405
422
444
471
497
522
544
560
569
570
564
549
526
502
476
452
430
414
403
400
405
422
445
473
500
524
544
560
572
572
567
551
528
503
477
454
434
419
412
413
420
436
459
485
511
536
556
571
581
582
577
561
538
511
484
460
439
423
415
414
421
440
463
491
521
548
571
587
596
596
589
569
544
516
487
462
442
428
422
423
430
448
472
500
528
556
580
595
603
605
602
586
561
532
500
471
445
427
418
420
431
453
480
512
542
567
585
593
595
586
569
540
501
457
411
365
323
286
255
230
213
207
207
211
215
217
212
204
195
180
164
149
133
120
114
116
126
145
179
228
297
383
462
536
602
652
692
721
741
745
740
721
692
657
620
586
556
532
519
513
515
527
545
567
589
611
631
646
656
657
652
636
612
585
558
534
513
498
491
492
499
515
538
566
595
621
644
662
672
672
666
647
623
597
567
539
515
499
489
488
494
510
532
559
587
612
632
646
653
653
643
623
599
571
543
518
494
473
463
460
463
477
498
524
550
576
599
616
625
627
622
606
581
552
523
498
478
461
452
452
459
473
495
523
548
574
595
611
622
623
615
597
572
545
516
491
472
456
446
444
449
462
483
510
537
566
590
607
616
616
609
593
568
540
509
483
462
447
438
437
442
457
478
502
528
554
574
590
600
600
593
577
553
526
497
470
448
431
422
419
422
437
459
485
509
532
555
573
582
584
578
563
539
512
484
460
440
425
417
416
421
435
454
478
503
526
546
563
573
574
569
554
531
505
478
449
426
408
398
397
402
417
440
467
493
518
540
559
571
573
566
550
526
498
468
440
417
397
386
383
387
401
423
447
471
495
515
528
536
536
530
513
489
463
436
412
392
376
368
368
373
390
414
445
476
505
528
546
559
560
553
537
514
488
461
437
417
401
393
391
398
413
434
459
484
509
532
550
561
566
561
547
525
498
472
447
426
409
399
398
405
421
446
476
503
529
551
567
577
577
572
558
533
507
479
452
429
411
402
402
410
428
451
480
507
534
555
570
579
582
579
565
543
518
491
467
447
431
422
421
428
446
469
496
524
551
574
592
605
608
605
593
574
549
523
500
479
464
457
456
461
477
502
530
560
587
611
630
639
642
637
623
601
575
546
519
496
478
465
461
465
480
502
527
555
582
605
622
634
636
630
616
594
567
539
513
489
470
457
453
459
475
497
526
556
585
610
627
639
641
636
623
602
576
549
525
504
485
474
471
474
486
507
533
559
582
603
620
629
630
624
609
587
561
531
504
477
455
443
437
440
453
476
503
531
559
583
600
608
608
601
584
560
532
504
480
457
438
427
422
423
438
462
491
519
547
570
588
598
601
598
585
562
536
509
483
462
444
435
432
436
451
473
501
528
553
575
591
600
599
591
574
549
521
494
467
446
428
421
422
428
441
464
492
522
550
575
593
602
603
596
582
560
533
506
482
462
446
435
434
439
453
476
503
530
558
582
598
608
610
606
590
568
542
515
489
466
448
438
434
437
447
467
491
516
541
561
576
584
585
580
568
547
521
495
469
447
430
423
421
425
439
460
488
516
542
564
581
591
593
589
575
552
524
495
469
446
427
417
415
419
432
453
480
507
535
560
578
589
591
588
576
556
531
505
481
460
443
433
432
436
449
471
499
528
555
578
594
604
607
601
588
563
536
508
481
456
437
425
421
425
438
458
483
508
533
557
575
587
591
587
572
549
524
495
468
447
430
420
418
422
436
458
484
511
537
562
580
594
597
591
576
554
531
504
477
454
436
426
424
428
444
467
494
520
546
566
579
585
587
581
566
541
514
487
463
442
425
414
411
415
431
451
478
506
534
559
577
591
594
591
578
556
528
501
475
452
434
424
422
428
441
465
493
523
552
578
598
611
617
615
600
576
550
520
494
470
450
437
432
434
447
468
492
517
542
565
583
595
598
594
582
559
533
505
478
455
438
428
425
428
440
461
486
514
543
568
587
599
602
599
586
564
538
511
484
462
444
434
434
439
453
475
502
527
552
574
590
600
603
601
589
567
542
516
490
467
447
438
435
439
450
468
492
516
541
564
582
594
595
588
573
550
523
497
471
447
428
417
413
417
429
450
478
505
531
552
569
580
583
577
562
539
511
482
454
429
409
397
392
397
412
435
462
490
519
545
566
581
586
583
569
547
522
497
472
448
429
419
417
422
432
453
479
508
533
555
571
581
583
577
563
541
515
487
460
436
417
405
400
402
415
435
460
490
517
543
561
572
575
572
559
539
514
487
461
437
416
407
403
408
421
444
472
500
527
550
568
582
584
579
568
545
520
493
467
444
425
416
414
419
432
454
479
505
528
551
568
579
582
576
564
542
516
490
464
445
428
418
415
419
432
454
481
509
536
560
577
589
592
588
575
553
527
498
471
447
428
417
415
420
436
458
483
506
528
547
560
564
559
547
523
488
444
397
347
299
257
221
194
173
160
158
158
157
157
159
160
161
163
162
159
151
144
144
154
176
208
257
324
388
452
516
575
628
671
705
726
738
740
731
711
682
651
615
579
551
527
512
505
505
515
534
558
582
607
631
647
660
664
661
650
627
601
575
549
527
508
496
492
494
504
523
547
574
600
624
640
650
651
644
633
612
587
559
530
506
487
476
471
476
487
506
528
551
574
594
610
619
620
614
602
579
552
522
493
466
446
433
426
429
443
464
489
517
545
570
590
602
605
600
586
566
543
517
490
467
448
437
433
437
449
470
494
517
537
557
572
582
586
581
568
550
525
499
472
450
432
423
421
427
439
461
487
515
542
564
582
593
595
591
578
555
527
497
468
444
424
413
411
415
428
449
473
500
527
553
574
587
590
586
574
552
528
499
472
449
432
421
415
418
429
448
471
495
519
543
563
577
583
579
566
542
516
487
460
435
414
399
394
398
407
428
453
481
510
537
557
572
579
576
567
548
525
497
472
449
430
420
416
419
432
452
478
505
531
552
570
583
589
590
579
560
532
502
475
449
428
416
412
415
425
446
473
502
529
554
574
587
591
590
580
560
537
510
485
465
447
435
433
437
449
470
497
526
555
579
600
613
618
616
604
583
557
528
500
475
455
446
442
448
460
481
504
531
558
581
600
612
615
610
598
575
551
524
499
476
457
445
439
440
450
467
491
518
543
567
584
596
600
598
585
563
540
514
491
468
451
439
435
438
449
471
496
523
549
572
591
604
608
604
593
572
548
521
496
475
460
451
448
452
464
488
516
547
577
604
626
643
650
648
639
620
595
567
539
515
496
484
479
483
494
513
537
565
593
618
638
652
658
655
643
621
598
572
546
524
506
494
491
494
505
526
551
578
603
624
642
652
655
650
637
615
590
562
535
511
492
479
472
475
485
503
527
553
581
606
624
639
644
641
631
611
585
555
528
503
481
468
462
464
475
495
520
546
572
596
615
629
633
629
618
595
568
542
515
491
471
460
455
459
469
488
513
538
561
582
598
610
612
607
595
574
549
520
492
469
451
438
432
435
447
467
494
520
546
568
586
596
600
598
588
569
544
515
490
467
448
438
433
436
446
465
489
516
543
566
585
600
605
600
587
563
537
508
479
454
433
421
418
426
441
464
492
520
547
571
590
602
608
603
593
571
546
519
494
471
452
440
435
437
447
469
496
524
551
575
594
606
608
605
593
571
543
513
484
460
441
428
425
429
438
460
486
513
542
569
591
606
611
610
602
583
561
534
507
484
465
452
448
452
463
484
510
538
567
592
611
624
628
624
614
592
567
539
510
485
463
451
444
446
455
475
501
528
554
577
594
606
611
610
600
583
561
534
508
487
469
458
453
456
466
487
512
539
564
588
607
621
625
622
611
592
569
542
516
492
473
460
453
455
466
486
510
536
562
585
603
614
616
611
598
576
551
523
496
472
451
438
431
432
441
460
485
514
542
567
586
600
606
604
595
576
551
526
498
475
456
444
437
438
445
463
485
511
537
560
579
592
596
594
583
565
543
518
493
471
449
435
429
433
442
462
486
513
539
563
583
598
605
605
593
573
547
519
493
470
453
443
440
443
454
473
498
524
551
573
592
605
609
604
593
572
548
520
494
470
451
440
436
441
450
470
496
523
548
572
589
603
607
606
598
578
552
523
496
473
454
441
436
441
454
476
503
531
558
580
598
609
613
608
596
575
547
518
490
465
444
431
424
428
436
453
476
503
527
549
566
578
583
580
571
551
528
502
479
457
441
431
427
432
442
461
483
508
533
556
574
589
596
595
583
562
536
508
482
458
438
423
416
417
429
449
475
502
530
556
574
586
590
587
578
558
533
505
480
455
436
420
414
416
425
444
469
496
524
550
571
587
594
593
584
564
540
514
490
468
447
433
425
428
436
454
478
505
530
553
572
585
591
588
579
560
538
513
487
463
444
431
425
428
438
456
480
505
529
552
572
585
588
583
572
552
528
503
478
455
435
423
419
423
435
456
482
508
535
559
580
595
601
601
591
572
548
522
497
473
450
437
431
431
439
457
480
506
533
559
580
596
603
602
594
576
556
529
502
478
457
444
437
440
451
470
494
520
546
569
587
598
603
601
592
572
546
517
491
467
446
433
427
430
438
457
481
507
534
560
582
596
603
602
594
575
551
524
497
472
448
431
423
424
431
448
472
499
525
550
571
588
595
594
585
567
543
516
491
468
449
436
430
432
442
463
488
516
544
572
596
612
620
619
611
592
569
541
513
489
467
450
442
442
449
468
493
520
548
574
594
608
615
614
606
586
560
531
503
478
459
445
435
434
440
457
479
504
530
555
575
589
598
598
592
575
555
529
503
481
461
448
439
437
439
450
464
479
493
502
504
499
486
463
434
394
349
301
252
205
163
126
92
65
49
52
68
94
126
158
190
220
250
277
301
323
349
387
425
461
493
520
543
566
589
614
640
664
687
706
720
728
730
723
710
686
660
630
600
572
550
535
527
529
537
554
576
600
625
646
664
676
680
677
668
648
625
597
569
543
522
509
500
500
508
525
547
571
595
619
638
652
657
655
645
625
600
572
546
523
503
489
483
485
494
513
539
566
592
616
636
650
655
654
644
624
597
566
539
514
494
481
473
473
480
497
519
545
572
598
621
637
642
641
632
611
584
554
524
498
476
459
450
450
458
474
495
520
544
568
587
601
607
606
598
580
556
528
502
478
457
443
435
437
447
467
492
518
545
571
591
604
609
605
597
577
554
528
502
478
458
444
435
435
444
461
486
513
540
563
580
593
598
595
585
564
541
513
486
460
439
423
414
413
419
437
460
487
513
536
553
569
576
575
568
548
524
495
466
442
420
405
398
398
406
423
447
474
501
526
548
565
575
576
571
555
535
509
483
460
440
428
420
423
431
448
470
495
518
540
558
571
574
571
562
542
518
491
466
441
422
407
397
396
403
420
443
468
494
517
537
552
559
558
551
533
511
487
463
440
420
406
398
400
408
425
447
471
498
521
541
555
562
563
554
532
508
479
452
423
399
383
374
374
380
399
424
452
480
505
524
538
543
543
535
517
494
466
439
415
394
379
373
375
383
401
424
450
479
505
527
542
551
551
543
527
505
480
456
434
416
404
396
399
406
425
451
479
508
536
560
579
592
595
591
576
555
529
504
481
461
448
442
446
455
474
499
527
558
586
608
624
632
632
622
605
582
554
526
502
482
468
461
462
469
487
512
539
569
596
618
634
642
641
634
615
592
564
537
513
492
477
470
470
473
491
512
538
564
590
610
626
633
632
626
607
584
557
528
504
481
464
455
455
461
479
504
530
558
582
601
616
623
621
614
595
571
544
518
494
474
459
452
453
460
477
501
529
557
581
601
615
621
620
611
594
571
544
520
497
476
460
451
451
458
475
500
526
551
574
595
610
616
615
607
589
566
538
509
481
457
440
431
429
434
451
472
497
526
553
576
593
601
599
591
574
551
524
496
470
449
433
426
427
432
448
470
495
520
543
565
582
591
594
589
570
548
521
495
471
451
437
429
428
435
452
476
503
529
552
573
588
596
595
588
572
547
519
492
468
448
432
422
422
429
448
473
502
530
558
581
600
608
609
603
587
566
540
513
489
467
454
447
449
458
477
502
528
556
582
600
614
621
621
612
594
571
543
515
489
466
449
439
439
448
465
489
514
543
570
593
610
617
617
612
593
571
544
517
491
470
455
448
450
458
477
504
532
560
585
606
621
626
624
618
600
577
550
521
497
476
462
454
455
462
477
499
526
553
577
599
615
623
623
616
598
573
544
516
489
467
451
443
444
451
471
495
522
548
573
592
607
614
613
606
589
565
536
509
485
464
448
440
441
449
466
489
515
543
570
591
607
617
620
616
600
579
551
524
499
477
459
448
447
453
471
493
516
541
563
582
597
604
602
593
574
551
522
495
469
449
435
426
425
431
448
471
496
523
549
572
591
600
600
591
572
548
518
487
459
436
418
408
408
416
434
459
489
516
542
563
579
587
585
577
560
540
512
486
461
441
425
416
418
427
446
473
503
532
559
582
601
611
614
608
591
568
539
509
480
455
435
423
419
424
441
464
488
514
540
562
578
586
585
579
560
536
509
480
454
432
414
404
403
411
429
453
479
506
532
554
572
582
583
576
559
536
508
479
455
433
417
410
413
421
440
463
487
515
540
561
578
586
587
579
562
542
515
487
460
437
420
410
409
416
432
455
481
509
535
557
575
583
583
577
560
535
505
477
451
429
411
401
401
408
425
449
475
504
531
553
571
581
580
574
556
534
508
484
462
442
428
420
422
429
445
470
498
527
553
573
588
596
597
593
576
554
527
503
480
460
444
436
436
441
456
476
500
526
553
574
591
602
604
599
581
557
528
499
475
455
441
434
435
441
457
480
505
532
558
580
598
606
607
600
583
558
529
501
475
452
435
423
423
430
447
470
497
525
551
574
590
600
601
596
581
559
532
505
480
459
445
437
438
445
461
483
507
532
556
578
597
608
610
605
589
566
539
511
484
462
447
437
438
444
459
482
510
540
567
588
604
615
616
610
595
576
551
524
500
479
462
452
451
457
472
494
519
545
570
593
610
621
625
623
609
588
561
532
508
485
469
460
459
464
478
500
526
553
579
599
614
620
618
610
591
565
536
506
480
457
440
432
431
435
451
473
497
523
547
568
585
595
595
590
574
551
523
495
469
447
432
422
422
429
446
469
498
527
556
581
600
610
613
607
592
572
544
518
495
475
460
448
445
448
462
482
508
535
560
583
603
616
621
621
608
585
553
520
487
458
433
409
393
385
383
384
387
391
391
387
379
364
343
316
280
234
183
131
80
41
15
7
14
32
67
113
172
238
310
384
460
538
601
646
669
671
660
644
629
612
599
588
583
581
585
597
613
632
651
667
678
682
679
670
654
629
598
567
537
513
496
484
483
489
503
523
548
575
600
623
642
654
656
651
635
613
584
557
531
510
494
482
480
486
501
522
545
571
595
615
630
636
634
625
608
585
557
529
503
482
465
455
454
459
472
489
511
536
560
580
596
606
606
599
583
562
536
511
486
464
448
437
434
436
449
471
496
523
549
573
591
600
603
600
588
568
543
516
490
468
453
443
441
446
462
483
506
528
551
570
588
595
598
593
577
557
532
506
481
456
440
430
430
436
450
471
496
522
547
568
584
595
597
592
576
554
529
503
478
455
438
428
427
432
445
466
489
512
536
557
575
586
587
581
565
544
517
492
470
449
432
422
419
422
433
452
476
502
527
549
568
579
581
576
561
540
515
490
467
447
431
420
416
420
434
454
476
502
526
547
563
573
576
572
558
539
514
487
462
440
423
411
407
409
420
440
462
486
509
527
541
546
545
536
518
495
467
442
416
395
378
368
365
367
379
399
423
451
475
496
511
515
512
504
486
464
438
413
389
369
355
344
344
350
364
385
412
440
466
489
508
518
519
515
502
480
454
428
401
381
365
357
355
361
375
394
416
440
464
486
503
515
519
518
506
487
463
439
414
394
380
371
371
379
393
417
443
471
499
521
540
550
554
551
539
520
500
480
459
438
423
414
413
422
441
466
496
526
553
575
594
605
611
608
595
576
551
526
503
482
468
460
459
465
481
505
532
559
585
608
627
638
641
636
624
605
581
557
535
513
497
487
483
487
499
519
543
570
594
614
631
639
639
633
616
593
567
541
515
492
475
463
461
467
479
501
527
556
585
608
625
636
638
635
621
602
577
552
525
502
482
470
465
468
481
502
526
551
574
593
609
617
620
616
604
585
560
537
515
495
479
468
467
472
484
504
527
552
576
596
614
623
627
624
609
589
564
537
512
488
471
459
456
457
467
486
508
533
558
580
598
608
610
605
591
571
545
519
494
472
454
440
436
438
448
466
488
510
528
545
559
568
569
563
551
530
504
478
453
432
413
401
398
400
412
431
453
478
502
525
545
559
563
558
545
526
501
476
453
433
418
408
406
410
423
445
468
493
515
537
555
568
573
572
560
541
516
491
467
448
435
426
424
430
441
462
484
506
527
548
563
573
576
573
563
545
524
501
479
458
443
435
436
443
455
475
496
517
542
563
580
589
590
585
572
550
524
498
475
456
442
432
430
433
443
463
486
510
534
556
576
588
593
590
578
561
540
519
498
481
467
455
452
457
469
488
511
537
562
583
601
611
613
609
596
579
556
531
506
483
466
456
454
457
467
485
510
537
562
581
598
607
609
604
590
568
542
516
492
470
455
445
444
448
461
482
505
527
548
567
582
592
595
591
577
558
532
505
479
456
439
427
423
426
435
453
475
500
524
546
565
577
581
576
563
542
519
494
470
449
433
425
425
429
440
459
482
505
528
548
566
577
582
581
572
554
531
505
481
459
443
433
431
435
446
466
489
514
537
557
574
583
584
581
567
544
519
493
470
449
435
425
422
427
440
463
488
516
541
563
581
591
596
592
583
564
540
514
491
468
451
440
437
439
450
471
494
519
545
567
587
598
601
598
584
562
535
511
485
462
445
435
433
437
447
466
487
510
531
550
565
573
573
569
556
536
511
485
461
441
427
416
415
420
433
452
477
503
526
545
560
569
570
565
554
535
510
483
459
435
417
406
403
407
419
441
466
491
514
533
550
559
563
560
548
531
509
485
462
441
427
419
417
422
433
454
478
503
525
545
563
574
576
574
563
545
522
498
476
455
439
429
425
428
438
458
482
505
529
550
567
577
579
576
565
546
521
496
472
451
435
425
422
423
432
449
471
494
515
533
550
561
568
565
554
535
513
488
463
442
426
415
412
414
423
441
463
486
511
532
550
560
563
561
551
535
515
492
470
449
434
424
422
424
436
456
477
501
523
543
560
570
574
571
558
539
515
490
468
447
430
420
418
424
434
452
476
501
525
546
565
576
581
578
567
545
519
494
467
445
429
419
416
420
435
457
483
510
535
556
571
576
573
563
543
515
480
443
404
364
327
294
266
242
225
217
214
212
212
208
197
181
162
141
122
103
84
71
68
75
92
121
167
224
302
391
473
547
609
655
690
713
726
729
718
699
671
641
611
582
558
540
532
532
540
558
579
603
624
642
657
666
665
655
640
617
590
564
540
517
499
488
483
487
498
518
542
568
590
609
626
635
638
634
623
604
579
553
529
508
491
480
475
476
483
501
523
546
568
588
604
612
615
611
600
581
555
530
506
486
471
462
460
466
478
499
524
551
574
595
612
623
628
626
614
593
568
543
519
498
480
468
464
468
478
498
521
547
570
592
610
621
625
622
610
588
563
538
516
495
479
468
465
470
480
499
519
541
565
585
604
615
619
614
603
584
558
531
507
486
469
457
452
456
464
482
506
532
557
579
598
610
615
610
597
577
552
524
498
475
457
444
438
439
446
462
482
505
528
551
568
579
585
582
571
551
526
500
474
451
433
423
420
423
435
456
480
505
531
553
570
579
581
576
564
543
520
494
469
449
432
419
413
416
427
448
472
497
522
545
566
579
585
582
572
556
533
509
486
465
447
435
428
427
435
451
470
495
519
539
553
563
563
558
547
530
507
482
457
436
420
410
406
410
422
441
463
489
513
534
549
561
569
570
561
545
522
497
473
452
436
425
422
425
437
455
478
502
526
547
564
576
580
577
566
548
525
500
476
453
433
419
412
414
423
441
465
493
519
543
561
574
579
578
568
550
528
504
480
459
444
434
432
438
450
471
495
522
549
574
594
608
615
615
608
594
574
549
527
509
494
484
482
486
496
515
539
564
590
610
629
639
644
642
633
618
597
573
551
531
515
506
502
507
518
537
560
585
611
635
655
667
671
669
659
638
614
589
565
544
528
517
513
517
526
541
560
581
604
624
640
651
654
651
641
624
601
578
554
532
514
502
497
497
502
518
539
563
585
604
622
632
634
632
622
606
584
560
536
516
499
487
483
486
495
513
533
557
581
598
614
624
629
627
617
599
575
551
527
507
491
479
473
475
483
501
521
545
570
591
609
620
625
622
610
590
565
539
513
491
471
456
448
449
457
477
499
524
549
571
589
602
608
604
595
578
556
532
508
485
469
457
455
460
470
488
510
534
559
579
594
603
605
601
591
574
551
527
504
482
466
455
452
455
463
480
499
521
543
564
584
598
605
604
595
580
558
535
511
489
472
460
453
454
462
481
502
524
547
568
588
600
607
604
594
575
550
523
496
473
455
441
435
434
441
458
479
503
527
550
568
580
585
585
576
559
536
510
485
463
446
434
427
430
438
455
475
498
521
543
561
570
573
571
562
544
519
494
470
449
432
420
415
416
423
440
462
486
511
534
553
566
573
572
564
547
523
499
475
453
436
425
422
425
434
454
476
501
525
547
566
577
582
580
569
551
531
507
482
459
440
428
423
424
431
449
471
494
515
531
549
562
567
562
552
536
514
489
465
444
427
414
408
410
420
438
461
486
510
532
551
563
567
564
557
543
521
499
475
454
435
421
412
413
420
438
460
483
508
526
543
555
564
565
558
540
520
496
472
451
435
423
419
424
435
455
477
501
526
547
565
577
582
580
570
552
529
504
480
457
438
425
419
423
431
450
475
501
526
549
568
578
582
581
574
559
537
514
491
470
453
439
430
427
433
453
476
501
525
547
566
579
585
583
575
557
534
510
487
466
446
433
428
430
438
455
478
502
526
547
565
580
586
584
576
561
541
519
496
475
459
447
442
445
454
472
494
519
544
564
581
591
595
591
582
563
540
515
491
470
454
441
435
438
448
468
493
519
547
571
591
604
609
608
600
584
562
537
513
491
473
461
454
455
461
480
503
527
551
571
588
599
605
605
598
582
561
538
516
497
482
470
467
472
480
500
524
550
575
596
615
628
636
636
630
612
590
567
542
518
499
484
476
477
483
499
517
539
563
583
601
612
617
616
609
593
571
547
522
497
479
467
463
466
473
492
515
540
561
579
596
608
612
609
598
580
556
530
506
483
467
455
451
454
461
478
497
519
541
560
575
585
589
590
584
569
547
524
499
476
458
448
443
447
454
472
493
515
539
561
582
595
604
606
602
589
569
546
520
499
481
468
463
465
472
489
510
532
554
575
593
606
610
608
598
581
559
535
511
491
473
461
455
455
463
478
499
524
547
568
587
597
601
598
586
568
543
518
493
470
452
440
433
435
443
460
483
509
534
558
578
588
591
583
569
542
508
471
435
400
367
336
309
287
272
266
266
265
261
258
254
241
220
190
161
128
99
72
50
35
31
37
55
88
133
198
282
379
468
546
610
657
689
707
712
702
680
651
621
594
572
553
544
540
544
556
573
595
620
643
663
675
684
684
678
662
639
614
591
571
554
542
536
539
546
562
580
603
626
646
664
675
679
677
667
650
626
599
573
549
531
518
509
508
515
532
552
576
600
620
639
652
657
656
649
632
609
583
557
533
514
499
492
492
499
515
535
559
583
605
624
636
643
643
636
618
595
569
545
523
506
492
483
484
491
508
529
554
578
600
620
631
637
635
628
611
589
561
536
513
495
479
472
472
478
491
510
530
551
569
588
600
607
607
602
585
563
537
513
490
470
452
440
440
446
463
485
511
537
561
580
595
602
601
593
575
552
527
502
478
457
442
433
432
439
456
478
502
526
548
566
578
586
585
579
563
542
517
493
469
449
435
427
427
433
448
466
487
510
529
546
559
565
565
558
541
520
496
470
447
429
415
408
409
416
434
457
482
505
526
543
555
561
560
552
536
514
489
463
440
422
408
402
404
411
427
447
471
495
515
533
543
547
546
540
524
501
475
448
424
403
389
382
381
387
401
419
443
465
487
506
519
527
527
521
506
486
463
442
421
403
390
382
382
387
402
423
448
472
493
514
529
536
536
530
513
492
467
442
419
400
386
378
376
382
397
418
443
467
490
510
525
536
538
531
515
495
472
450
432
417
405
399
403
412
431
454
480
507
529
551
565
573
575
571
558
539
517
495
475
459
446
441
445
453
470
492
519
545
569
591
607
615
616
612
600
580
558
538
516
499
484
476
475
480
495
516
541
564
587
606
619
627
627
621
605
584
559
533
510
489
475
467
468
474
489
510
535
562
585
607
621
628
626
619
603
579
554
528
505
487
474
467
468
474
491
512
536
560
583
602
615
621
620
613
597
574
547
521
497
477
460
450
449
457
476
497
523
549
572
592
606
614
616
611
596
575
547
520
496
475
461
454
454
457
472
491
513
537
559
578
593
601
599
592
575
552
525
498
474
455
443
436
437
444
457
476
498
520
542
561
575
582
582
575
561
539
512
488
465
445
430
420
420
425
438
458
484
510
533
551
566
574
575
568
552
530
505
480
457
437
423
414
412
416
430
447
467
489
511
531
546
555
556
551
537
518
496
474
455
438
423
414
412
417
434
456
483
512
539
562
581
592
594
589
574
552
528
504
481
461
447
439
439
442
458
480
505
531
555
574
588
594
590
583
566
544
519
494
472
454
439
432
431
436
451
471
495
519
543
565
581
590
589
583
569
548
526
503
483
465
452
442
442
446
460
480
504
530
553
574
589
596
598
593
579
557
531
507
484
463
448
438
434
439
452
471
494
519
543
560
573
579
579
572
556
535
509
486
463
443
428
420
419
425
441
460
482
505
527
547
562
570
572
564
550
528
507
484
462
443
428
420
421
426
441
463
487
510
532
553
567
574
575
571
556
537
513
489
465
446
431
424
423
429
444
464
487
511
533
552
567
575
576
573
559
539
514
488
463
443
426
417
417
424
440
461
485
510
532
552
567
574
575
570
556
535
511
487
463
444
430
424
424
431
447
467
491
516
540
561
575
587
589
585
568
544
519
495
472
456
445
439
440
448
466
486
509
534
558
578
592
599
599
592
576
553
527
502
478
459
445
438
436
440
454
473
495
519
542
562
575
580
579
573
559
538
513
489
467
450
435
428
428
434
449
471
496
521
544
567
583
591
594
589
577
558
533
507
482
461
444
436
438
444
460
481
508
534
557
576
590
597
596
590
575
554
529
505
482
463
450
443
444
451
466
488
513
537
560
579
594
601
602
596
583
564
538
511
487
467
448
439
437
442
459
479
504
529
551
572
585
592
593
588
572
549
524
499
476
455
440
431
429
434
448
467
491
515
537
556
571
579
581
575
561
543
519
495
475
456
443
435
436
444
459
480
504
529
553
575
591
602
605
600
589
569
546
523
500
481
464
454
453
456
470
488
512
537
559
577
590
596
595
588
572
551
527
503
481
462
447
439
439
444
458
477
500
526
550
571
588
596
598
592
579
560
535
510
486
468
453
444
441
446
460
480
502
524
545
564
578
585
587
580
567
547
524
499
476
456
442
434
434
440
457
478
502
527
550
571
587
596
598
592
580
558
532
507
484
464
447
439
441
449
464
486
510
533
554
573
587
594
592
585
570
547
523
499
476
455
438
430
430
436
451
471
495
520
541
559
574
582
583
579
566
544
519
493
467
446
430
422
421
427
443
464
491
518
544
566
583
594
597
593
581
559
537
513
491
472
457
448
446
450
463
481
504
528
551
574
590
602
604
598
580
554
524
493
462
434
408
386
369
356
350
348
349
350
351
349
340
324
302
276
236
187
137
92
55
30
16
14
24
47
83
135
198
266
340
428
511
580
633
668
684
684
675
660
640
620
600
585
578
577
586
602
621
643
664
683
697
705
704
699
685
665
642
616
593
573
557
547
545
550
563
581
603
626
646
664
678
686
686
676
658
633
604
575
549
527
510
496
490
492
504
522
545
571
596
618
632
638
639
633
619
596
573
548
525
505
491
482
481
485
499
519
543
568
592
614
628
637
638
632
616
594
568
540
515
494
478
467
465
469
483
504
526
550
571
591
604
612
613
608
596
575
552
530
508
490
473
463
459
462
476
496
520
547
572
593
609
621
624
619
606
585
561
537
514
495
481
473
472
477
491
508
529
552
574
593
607
616
617
611
595
574
549
523
499
479
462
451
449
452
465
483
504
527
548
569
584
594
599
595
583
563
538
513
491
470
453
442
440
445
461
482
504
525
545
566
580
589
590
584
572
552
528
505
482
462
446
435
434
439
453
472
495
518
540
559
572
581
582
576
563
542
518
495
471
449
431
420
417
420
433
454
477
501
523
543
557
564
564
559
547
527
502
475
449
428
410
399
397
399
411
428
452
476
497
516
529
536
535
529
515
495
470
446
422
401
385
375
371
374
385
403
425
448
469
490
506
515
518
514
502
484
461
436
412
392
378
369
368
372
387
406
429
452
477
500
518
529
532
527
515
495
471
447
425
408
392
383
382
387
402
424
450
478
505
528
545
556
559
555
545
528
506
482
460
441
425
416
416
423
440
463
491
518
543
566
584
598
602
599
589
569
546
521
497
479
465
458
459
467
484
506
533
560
584
606
623
634
636
631
618
599
575
551
526
504
488
478
476
481
495
515
539
564
588
610
627
638
641
637
625
606
582
556
530
508
490
480
478
482
495
514
536
559
580
599
614
624
629
625
615
594
571
546
520
500
481
469
466
471
483
502
525
547
569
590
606
615
619
616
605
585
563
539
514
495
479
471
471
476
491
512
534
556
577
600
616
627
630
624
610
586
559
531
508
487
471
462
459
462
472
492
514
536
559
580
596
605
606
599
583
562
539
514
490
468
451
439
434
438
449
469
495
519
543
565
580
590
591
589
579
562
539
513
490
470
454
444
441
447
460
478
501
526
549
569
585
595
598
595
583
561
536
511
486
465
449
438
433
438
450
468
490
516
540
563
579
590
595
595
586
569
547
523
502
485
472
465
463
467
479
496
518
541
564
584
601
611
612
606
591
570
547
524
502
483
465
455
452
455
467
484
505
528
550
569
585
594
597
592
581
561
537
513
491
470
454
444
442
444
456
476
496
519
543
561
577
587
588
585
574
553
527
502
478
456
440
432
428
432
444
462
483
506
529
551
568
575
576
569
556
535
512
487
464
446
431
423
422
427
440
458
480
503
525
543
557
565
568
568
558
540
519
495
470
450
434
424
422
426
440
462
487
513
537
559
576
586
588
584
572
551
528
503
480
460
443
432
429
432
442
460
483
508
532
553
568
578
583
581
571
553
531
508
487
472
455
445
440
443
454
472
493
517
542
563
577
586
585
580
568
551
528
504
482
463
447
438
436
440
452
471
493
516
539
560
575
584
587
581
570
549
524
502
478
457
440
429
426
429
440
457
481
506
530
550
566
576
575
568
552
529
504
476
451
428
413
403
403
407
418
435
459
485
508
528
545
555
558
555
543
521
497
473
451
431
415
406
405
411
423
442
467
493
518
540
556
567
572
568
557
537
515
492
471
451
435
427
423
426
437
453
474
496
519
539
554
564
569
566
556
536
513
488
464
446
433
425
422
423
435
454
478
502
526
550
567
577
580
576
564
545
522
497
475
457
441
432
429
432
442
461
486
511
536
559
577
591
595
593
583
564
540
514
491
469
449
438
435
439
451
470
492
515
538
556
569
574
573
564
548
524
495
464
436
413
390
374
365
364
373
388
406
427
448
467
481
489
490
483
467
445
419
393
369
348
330
318
314
316
326
344
367
390
412
433
451
462
467
463
452
431
407
380
351
326
305
291
287
290
302
322
347
371
395
419
439
452
460
460
452
435
414
394
374
355
341
332
332
339
354
378
405
434
460
484
503
515
520
519
512
495
475
452
431
411
394
382
378
382
394
415
438
463
489
512
531
543
548
546
537
520
497
472
449
429
413
402
400
404
415
432
457
482
506
529
546
556
559
556
546
530
511
489
470
454
439
428
421
419
422
431
441
454
465
472
471
463
446
419
385
340
292
243
195
149
110
75
45
23
11
14
31
53
80
113
150
191
231
270
311
349
396
439
472
500
516
528
541
556
577
602
626
649
666
679
688
693
691
685
672
649
624
597
572
550
530
518
512
513
524
542
563
585
607
628
644
655
659
656
645
624
600
572
545
523
504
492
486
485
492
509
529
553
577
599
616
629
633
630
621
604
582
556
532
509
489
476
470
472
483
501
524
550
575
597
615
627
634
633
624
606
583
560
537
518
501
488
483
486
495
512
533
555
575
594
610
621
625
622
613
593
568
541
516
496
477
466
461
464
473
491
513
536
559
579
595
608
612
611
601
581
556
530
504
483
464
453
450
451
463
482
505
531
556
579
597
608
612
609
599
578
552
527
502
481
462
452
448
449
459
476
496
519
543
566
583
595
599
597
588
570
548
523
497
476
460
450
448
454
465
484
506
530
553
573
590
601
606
604
596
578
556
533
511
492
476
465
460
463
473
491
513
536
560
582
598
608
613
612
604
587
565
541
517
496
480
469
463
464
472
488
508
532
556
578
595
606
610
607
597
577
555
531
508
489
473
463
458
460
468
485
505
527
547
565
578
589
592
588
577
555
531
506
484
465
448
438
435
437
446
462
483
508
535
558
575
586
589
584
572
552
529
505
481
459
439
428
422
423
434
454
476
500
525
547
566
580
586
584
575
558
536
511
487
467
451
441
436
440
450
470
495
519
544
568
586
598
602
600
590
572
550
525
505
487
472
464
462
470
481
500
524
549
575
598
615
628
633
632
624
606
583
558
532
512
496
487
484
488
499
518
542
566
590
611
629
640
645
643
634
618
599
575
553
535
520
512
510
514
525
543
565
590
611
633
649
662
668
665
656
637
613
588
564
542
524
510
503
505
513
529
550
573
595
616
632
642
647
642
632
612
590
562
537
515
498
487
482
485
495
513
534
555
578
598
615
627
634
634
627
609
588
565
543
523
508
499
495
498
508
526
548
571
595
615
632
643
644
640
629
610
588
565
543
523
507
497
494
496
505
521
542
564
585
607
622
635
639
638
629
612
590
565
542
521
504
493
489
492
500
515
536
560
583
606
623
635
640
639
628
609
587
562
539
518
499
487
481
483
491
508
529
553
576
599
616
630
636
633
624
605
583
558
532
509
491
478
472
472
481
500
524
550
575
596
612
623
627
621
611
592
570
545
520
499
479
467
462
463
473
492
513
538
563
586
603
614
619
615
607
591
571
547
524
503
485
473
468
472
482
499
519
541
564
588
605
616
621
615
607
586
559
529
501
476
455
443
437
439
450
469
493
519
545
571
591
606
611
607
596
577
555
529
505
484
467
455
450
451
456
472
492
515
536
556
573
586
592
590
582
566
544
519
494
473
455
441
436
437
443
458
479
503
527
551
568
579
585
584
577
559
537
513
487
467
449
440
436
439
448
466
486
511
535
560
579
593
600
600
592
575
555
534
511
492
475
465
461
464
472
488
507
529
552
572
589
602
607
604
595
575
555
531
509
489
473
461
457
457
464
480
502
525
550
572
592
604
608
606
598
580
558
534
510
490
472
461
455
459
467
484
507
530
554
575
592
604
612
610
602
583
561
536
513
492
475
462
456
457
464
479
499
522
546
568
583
593
600
596
584
565
542
519
497
479
463
452
448
450
458
475
498
522
546
569
587
600
604
603
595
578
555
529
502
480
460
447
441
443
454
473
496
520
544
566
584
598
604
600
590
572
549
525
503
482
464
453
448
450
459
477
501
525
549
571
587
595
598
596
587
568
545
520
496
476
459
448
443
445
454
472
494
520
544
565
582
594
601
601
594
577
556
532
508
488
472
460
454
456
465
483
506
529
552
573
590
602
607
605
595
575
552
526
502
479
460
447
442
444
451
468
487
509
532
553
569
582
588
585
577
560
537
511
486
463
443
431
424
425
432
448
471
496
519
542
558
570
575
571
564
546
525
503
481
462
443
431
424
425
432
448
470
492
513
534
552
566
573
573
567
552
532
507
481
458
440
429
423
425
434
452
475
500
525
547
564
577
582
582
575
558
536
513
492
474
459
448
444
445
453
468
487
508
527
547
561
569
574
571
566
550
531
505
480
459
440
427
422
424
432
448
470
494
518
542
561
573
578
576
569
551
532
511
489
470
454
444
439
444
456
477
502
527
550
568
580
587
584
571
552
521
484
443
400
357
316
279
247
223
207
198
193
194
193
187
175
162
147
136
125
108
92
80
75
79
94
122
162
223
303
384
463
535
595
643
679
707
722
723
713
691
664
636
608
582
559
542
530
527
534
551
570
592
615
637
655
665
669
666
657
639
617
593
569
547
528
515
508
510
516
532
553
576
599
621
639
652
657
653
643
625
601
574
547
524
505
492
484
484
489
501
521
545
569
591
608
622
628
627
620
603
581
557
533
511
491
479
473
475
483
500
523
548
571
593
609
622
627
624
615
596
574
549
525
504
487
475
468
469
476
488
507
528
551
574
591
605
611
607
599
579
557
532
507
485
464
449
440
441
451
470
492
516
540
561
578
591
598
597
591
572
548
523
497
476
457
443
435
437
444
461
481
505
528
551
568
581
589
589
585
568
549
524
500
478
460
448
444
447
454
468
487
508
531
553
570
583
588
585
575
556
534
508
484
463
445
433
425
425
430
444
463
487
510
531
547
557
561
559
551
534
514
492
467
445
425
411
403
403
408
422
442
465
487
511
528
542
548
548
543
527
505
480
455
433
415
403
398
399
407
426
448
473
497
520
539
552
559
559
553
536
516
494
469
448
430
416
409
410
415
429
448
471
494
518
538
552
560
561
555
539
519
497
474
452
433
420
414
414
422
439
459
482
506
528
545
558
563
563
557
541
521
499
476
454
433
419
412
412
420
437
459
484
508
531
550
566
574
576
572
556
536
513
492
474
460
452
451
457
469
489
514
540
565
590
609
625
632
634
632
618
599
576
552
530
511
498
490
490
497
512
533
559
585
610
630
643
649
648
643
627
606
581
557
534
516
503
496
498
508
525
547
572
596
619
637
649
655
652
644
627
606
583
559
537
518
506
501
504
512
527
547
572
594
616
634
646
652
649
640
621
599
572
547
523
504
491
482
480
485
499
520
545
570
591
609
621
628
629
623
607
583
557
530
508
489
475
466
464
469
482
502
524
547
567
583
594
599
596
589
572
550
523
499
476
457
444
438
440
447
465
487
511
536
559
579
593
599
597
589
572
551
526
501
477
458
445
438
437
441
456
479
505
529
551
570
583
589
590
585
569
548
525
501
479
460
447
440
439
445
461
484
510
535
560
579
592
600
599
593
579
560
537
515
493
475
461
454
455
462
476
496
520
545
569
591
609
618
620
614
599
580
557
531
508
488
473
467
468
474
490
510
532
556
577
593
605
609
609
604
588
565
540
515
495
478
465
459
459
464
480
500
523
548
572
591
603
607
605
598
580
562
541
520
502
483
470
461
460
467
482
503
526
549
571
590
602
609
609
602
586
565
540
514
490
470
457
451
454
462
481
504
530
554
577
595
607
612
613
607
591
572
549
526
507
489
475
468
468
474
486
503
521
540
559
574
585
591
590
585
570
549
524
499
478
460
447
440
441
447
463
482
503
523
543
559
574
581
583
577
563
541
516
492
471
451
438
432
433
439
455
478
504
528
553
574
589
598
599
593
576
555
530
505
482
462
449
442
442
450
465
486
511
535
559
578
593
600
600
593
577
556
533
510
489
471
458
450
450
455
470
487
509
534
558
578
594
602
600
593
575
553
529
506
484
466
453
445
445
450
464
482
503
523
546
566
583
591
590
584
569
550
527
504
481
461
447
438
436
440
454
475
498
524
547
568
585
595
597
591
575
555
528
504
480
459
443
436
437
443
457
476
499
523
544
563
575
582
582
575
559
539
515
489
466
446
431
422
417
420
431
446
465
485
505
523
536
542
540
534
519
497
473
448
424
403
388
379
378
382
396
416
439
461
484
503
518
526
527
519
502
481
455
432
410
391
377
368
368
374
389
410
434
459
481
502
518
526
525
520
503
483
458
435
412
392
377
370
370
376
391
412
435
460
482
500
513
522
523
519
507
487
463
438
418
401
390
383
384
390
405
425
448
472
496
515
529
536
537
530
514
492
467
441
419
400
386
380
379
387
402
423
448
474
497
517
532
541
542
537
522
501
478
452
429
411
399
393
394
400
415
435
460
484
505
523
539
547
549
544
528
508
484
458
435
415
400
391
388
393
409
432
458
486
509
527
543
552
553
549
535
516
493
469
448
429
415
409
410
415
430
452
477
503
526
546
560
566
565
560
546
527
504
480
459
442
430
424
426
433
449
471
497
525
551
571
587
596
595
590
575
554
528
504
480
461
445
437
435
443
457
476
500
524
547
567
580
589
590
586
572
555
534
511
487
464
445
429
421
417
422
431
441
447
453
452
443
428
403
373
334
287
237
188
139
89
42
11
0
0
0
23
56
95
139
187
237
287
335
392
448
492
525
546
555
558
561
565
572
579
591
606
623
641
658
673
684
688
683
674
657
633
607
582
561
543
528
519
516
521
533
552
574
598
620
639
652
659
657
651
632
610
584
557
534
513
497
488
487
491
505
527
551
575
595
611
624
630
627
619
604
583
559
534
510
491
478
472
472
476
491
512
535
559
585
604
619
627
628
621
607
586
561
536
514
495
479
468
466
470
482
503
525
547
570
589
605
613
614
608
591
568
543
516
495
475
461
453
454
459
473
493
516
540
563
582
595
603
602
596
579
557
532
507
483
463
449
440
439
446
462
484
511
536
559
578
592
600
599
592
577
556
532
507
482
463
448
440
440
447
460
480
504
527
551
570
583
590
590
583
566
545
521
495
474
454
441
436
438
445
460
480
504
528
552
571
587
596
596
591
577
556
530
505
483
463
446
435
432
435
449
471
496
521
545
564
579
585
584
583
568
547
521
496
475
456
442
433
432
437
450
469
494
521
545
566
583
592
591
585
569
548
523
498
475
455
439
430
429
432
443
460
480
503
523
539
551
558
557
550
534
514
491
465
443
424
410
403
401
407
423
446
471
495
518
538
553
561
561
556
543
522
497
471
447
427
411
401
401
404
417
437
459
481
503
523
539
548
551
548
535
517
497
474
452
435
420
413
411
415
429
449
473
498
524
547
565
577
579
577
566
548
526
505
484
466
454
447
448
455
472
495
522
550
575
598
614
624
626
623
611
592
567
541
515
495
480
471
468
472
486
507
531
558
584
606
622
633
637
638
628
611
585
558
534
513
498
490
487
493
505
525
547
569
593
613
630
641
643
639
626
605
580
554
529
507
491
482
479
483
495
513
538
562
585
605
620
629
631
625
612
593
572
549
527
508
492
483
482
487
502
521
544
568
591
612
628
636
637
634
621
603
580
558
537
519
504
496
496
499
510
528
551
573
596
615
630
638
639
635
622
600
575
550
527
506
489
478
472
474
484
502
525
550
574
593
608
615
613
606
591
570
548
525
503
482
465
455
451
454
466
485
509
535
560
580
594
601
603
598
583
561
536
512
489
469
454
446
444
450
464
484
508
531
556
575
590
598
597
590
575
555
530
505
482
462
446
438
438
446
460
480
502
523
544
562
575
585
587
582
568
549
526
502
479
458
443
433
432
439
454
473
497
521
544
565
581
590
592
587
572
551
527
502
478
457
443
434
433
438
449
468
493
515
536
556
572
582
584
582
572
552
527
502
478
459
445
437
434
438
451
472
496
521
545
568
583
591
591
583
568
547
521
497
473
451
435
424
419
422
432
448
470
493
516
535
548
554
554
548
534
513
489
464
441
421
407
399
399
401
412
432
453
477
499
515
528
536
534
529
515
496
471
449
428
409
396
388
387
392
407
428
454
481
508
530
550
560
562
557
543
522
496
471
447
427
412
403
401
405
418
436
460
484
505
526
542
555
558
555
543
522
500
477
456
437
424
419
418
423
438
458
483
510
536
557
572
580
583
578
566
546
524
501
480
460
446
439
439
445
461
482
504
528
547
564
577
585
587
583
569
548
523
498
477
458
444
437
437
444
458
480
503
527
550
573
589
599
603
601
589
571
549
526
505
485
469
459
456
460
474
495
520
548
575
598
616
628
631
627
615
596
573
547
525
506
491
482
478
482
496
516
540
564
588
608
625
635
635
629
614
593
569
543
519
499
484
474
472
476
488
507
530
555
580
600
612
622
623
618
605
585
560
536
516
497
483
476
476
482
495
516
538
559
581
600
615
623
625
623
613
593
569
544
520
500
485
476
472
472
482
498
518
540
561
579
594
603
604
598
586
565
541
518
497
480
467
456
451
452
463
480
502
524
545
565
582
591
593
588
574
553
530
506
484
463
446
437
435
440
451
469
492
515
537
557
571
579
580
574
560
539
515
491
466
444
430
425
426
433
448
467
489
512
536
558
573
584
589
586
575
558
536
511
488
467
450
439
437
440
450
468
492
516
537
554
567
578
582
580
569
550
528
506
484
465
449
440
436
440
451
469
491
509
529
546
561
571
573
570
557
536
510
484
461
440
423
413
408
409
418
435
456
479
501
519
536
547
553
553
547
533
514
493
471
447
426
410
400
397
396
399
407
412
416
416
411
396
374
344
305
262
215
167
120
70
26
0
0
0
0
0
13
49
95
147
204
267
331
400
468
517
550
566
568
564
561
563
565
572
585
604
623
641
659
671
678
681
679
671
654
630
605
579
557
538
523
513
509
510
518
534
553
576
600
621
638
648
652
650
640
623
600
576
555
534
518
507
501
503
512
526
544
563
582
598
611
619
622
619
609
591
571
547
527
508
493
481
477
479
489
506
527
550
572
592
607
616
618
612
599
579
555
530
508
489
476
466
463
467
477
492
512
534
556
575
590
600
604
601
591
572
550
526
503
481
464
455
452
454
464
481
500
521
542
560
575
584
583
580
569
551
531
510
491
475
462
453
451
455
464
481
503
526
547
566
580
588
588
583
572
554
534
511
488
468
451
442
439
441
449
465
486
510
534
554
570
579
583
578
568
550
527
504
482
461
444
435
433
437
447
464
486
509
529
547
563
572
575
570
560
544
523
501
478
458
442
430
425
428
436
452
472
496
518
539
554
562
562
557
544
525
502
478
452
430
411
398
396
400
412
432
455
479
501
519
536
547
550
546
535
516
495
473
452
433
419
410
409
414
427
447
469
492
516
537
553
563
568
566
556
538
515
490
467
447
428
416
412
414
425
444
467
492
514
532
546
554
555
549
537
517
496
474
453
435
420
408
403
404
411
428
450
473
497
516
531
541
544
541
531
515
494
470
449
430
415
406
403
409
423
445
468
492
516
539
558
571
578
579
572
558
541
523
504
486
470
461
460
464
476
494
515
541
569
593
612
625
632
630
622
606
585
566
546
528
514
505
504
510
523
545
568
591
612
630
646
656
660
658
648
629
605
580
558
538
520
510
506
507
517
536
556
579
599
615
631
640
644
644
638
622
600
577
556
536
519
509
505
505
512
529
551
575
598
620
636
647
647
641
630
611
588
563
541
519
502
488
483
486
497
514
536
560
585
607
624
637
640
637
627
609
587
562
538
517
500
490
487
490
499
516
539
561
583
602
618
628
629
625
614
594
571
545
522
503
488
478
475
478
489
506
526
546
563
576
589
595
598
595
584
565
541
515
492
471
453
441
435
435
442
456
475
497
521
542
559
569
572
568
557
537
514
489
467
447
428
417
412
414
424
442
465
489
512
530
547
557
562
560
552
538
520
501
480
461
446
437
436
440
449
465
487
509
532
552
566
575
578
574
561
541
517
495
474
456
443
435
433
438
448
463
483
507
531
554
571
582
588
588
579
560
540
517
495
477
463
453
450
451
458
472
492
515
538
559
576
588
593
591
582
563
542
518
496
475
458
448
444
448
457
474
494
517
538
558
571
581
585
581
571
554
532
508
485
467
452
441
438
437
445
461
481
503
526
546
560
571
575
572
562
545
525
504
483
464
451
443
443
448
458
476
497
518
539
558
571
581
584
580
569
551
530
509
486
466
451
440
437
441
451
470
490
513
534
552
567
575
579
575
564
545
524
502
481
463
447
435
431
434
444
461
481
502
521
539
554
562
565
562
552
535
514
492
470
450
435
425
422
425
438
456
480
503
527
549
565
574
577
575
565
548
527
503
480
460
446
437
434
435
445
461
481
503
526
547
566
577
583
580
571
553
531
507
484
464
448
441
440
445
456
473
494
515
539
560
578
592
598
597
588
570
548
524
499
476
459
448
446
449
460
476
496
519
543
564
582
592
596
595
586
569
548
525
502
483
469
459
455
459
470
487
508
530
552
574
591
601
606
604
593
575
553
530
507
487
471
460
458
460
468
486
508
531
555
575
590
601
606
606
598
580
560
536
514
495
479
468
464
466
473
487
507
528
551
571
588
599
603
601
593
577
557
535
513
495
481
473
471
475
484
501
519
542
562
579
591
599
600
600
591
574
553
532
511
492
475
463
458
459
466
483
503
527
551
572
587
597
601
599
590
572
552
531
509
487
469
457
453
454
463
481
502
525
548
569
588
601
607
606
596
579
559
536
514
495
479
467
465
470
482
501
523
547
570
589
604
615
621
618
608
589
564
537
513
496
481
471
467
470
480
496
516
539
560
579
594
603
606
602
590
571
548
524
499
476
459
447
442
444
453
467
488
510
531
551
566
576
580
577
568
550
528
507
484
465
449
440
435
439
448
466
487
509
529
549
564
572
575
574
564
548
529
509
491
474
457
442
432
426
428
433
441
451
462
468
468
460
441
415
382
340
293
243
190
142
99
61
28
4
0
0
8
31
57
89
124
159
198
237
277
317
369
417
458
492
515
533
551
569
587
609
631
650
668
682
692
697
699
693
682
663
638
614
592
573
556
543
535
534
540
555
573
593
614
634
650
660
665
662
654
635
611
587
562
542
526
514
509
510
519
536
558
579
601
618
634
643
645
641
634
616
598
573
546
523
503
487
478
476
483
499
519
540
561
581
599
609
615
615
608
592
571
547
523
502
486
477
473
478
487
504
524
547
570
591
607
617
621
618
611
596
577
554
531
512
495
483
476
474
479
492
512
533
553
571
587
598
605
604
596
579
556
534
512
492
475
463
457
460
469
486
505
525
545
561
573
579
582
580
570
551
530
507
486
468
453
444
439
440
448
465
485
506
526
543
557
566
569
567
558
541
518
495
471
450
432
420
414
412
421
437
457
480
501
521
535
543
545
542
534
519
501
479
455
434
418
409
406
410
419
435
455
478
502
524
540
551
559
559
551
536
515
494
472
452
436
425
420
421
428
447
467
492
516
537
554
564
568
566
560
542
523
500
476
455
437
423
416
418
426
442
463
487
512
533
549
561
565
563
555
538
516
493
468
447
429
417
412
412
420
436
456
480
504
527
544
557
561
556
544
525
504
481
459
440
425
415
412
413
422
439
460
482
504
524
539
550
555
553
547
532
513
490
467
447
429
417
413
415
426
445
469
494
518
541
559
572
580
581
575
560
543
523
503
486
473
466
464
470
482
500
522
547
571
592
611
624
632
627
621
607
591
571
551
533
519
509
506
510
518
535
555
577
599
619
636
648
652
650
643
627
607
584
561
539
520
508
503
505
511
525
544
568
591
613
632
644
649
649
643
628
609
585
560
538
521
509
501
501
510
527
548
569
592
612
628
639
644
645
638
623
601
578
555
534
516
500
492
492
499
514
534
557
578
600
615
627
632
631
622
606
584
558
534
511
493
480
475
478
487
504
524
545
566
583
597
606
611
610
604
588
567
541
516
497
481
472
466
467
474
488
506
527
550
569
584
595
599
596
588
571
550
524
497
476
458
445
436
436
444
460
483
509
532
553
571
583
588
585
577
559
536
513
491
469
451
438
432
432
436
449
464
485
506
527
545
557
562
560
552
533
511
489
467
448
431
420
413
412
419
432
452
475
497
518
534
546
555
555
548
533
516
496
475
456
440
428
422
421
428
443
462
484
506
525
542
556
562
561
556
540
521
499
478
461
447
437
432
436
446
464
484
510
532
554
572
584
590
588
581
564
542
518
494
474
454
440
431
432
438
452
470
489
511
532
550
562
567
566
560
544
526
505
484
464
450
440
436
439
445
459
479
501
524
546
563
575
580
578
570
553
531
508
487
467
449
437
432
435
443
458
479
501
523
544
563
577
585
587
580
564
544
523
503
483
465
454
449
451
458
472
490
512
534
554
572
583
589
587
579
564
546
524
503
481
464
450
442
441
447
461
480
499
519
539
557
568
573
571
563
548
529
508
483
464
447
437
433
438
448
465
487
511
534
554
572
583
591
593
590
577
560
540
520
501
484
473
471
472
481
499
520
542
564
583
599
611
620
620
612
596
576
553
529
507
488
474
467
464
469
484
504
528
549
571
588
599
605
603
594
578
556
534
511
491
474
462
456
456
462
475
492
512
533
556
576
589
595
592
585
568
545
522
502
481
462
448
439
436
438
450
468
489
511
531
546
558
563
562
556
543
526
505
482
463
445
433
427
428
437
456
478
500
523
543
560
572
579
577
571
555
537
517
497
477
461
449
445
448
457
472
491
511
531
551
567
576
580
580
572
555
533
509
486
465
448
434
427
426
432
447
465
485
503
520
535
546
550
548
542
525
504
483
463
451
445
444
448
457
473
499
529
561
591
620
644
663
676
679
676
665
648
628
607
588
572
561
556
556
565
581
602
625
649
671
688
699
704
702
695
680
663
642
622
603
584
572
563
563
569
585
607
632
658
680
700
712
716
712
704
687
665
641
617
595
575
560
551
549
553
564
580
601
622
640
659
672
679
679
671
656
636
612
589
568
548
532
524
525
531
545
563
583
601
621
638
648
652
649
641
624
605
583
561
543
527
516
511
510
514
527
544
563
583
600
615
625
632
630
624
610
591
569
546
527
511
496
490
492
499
513
534
558
581
601
619
633
639
638
631
615
595
572
547
527
508
496
488
488
492
503
519
543
565
585
604
616
623
623
616
602
582
558
533
511
493
480
471
471
479
495
515
538
561
585
606
621
628
624
612
588
560
527
491
458
425
390
351
316
285
263
245
231
219
206
191
175
155
126
90
47
2
0
0
0
0
0
0
0
0
0
49
122
210
303
385
456
510
543
564
569
566
551
532
513
496
479
470
467
472
484
499
518
537
556
571
580
584
582
576
562
542
520
497
477
460
449
446
450
458
475
496
521
547
572
590
602
607
607
600
584
563
540
519
497
478
465
459
459
464
478
496
518
539
559
576
588
594
592
587
571
551
531
510
491
475
464
461
465
475
492
513
537
563
590
610
627
636
637
632
617
599
578
556
535
518
505
499
500
506
520
539
560
583
603
620
634
641
642
637
623
604
583
560
537
519
506
500
501
507
519
537
560
583
604
621
631
637
636
632
618
599
576
552
531
513
499
490
489
492
504
522
544
565
583
599
608
611
609
603
588
568
545
522
499
481
468
460
459
463
474
490
510
531
551
569
581
589
591
585
573
555
532
510
492
475
463
455
455
460
473
489
509
528
549
567
580
586
586
581
565
544
523
500
478
459
446
438
438
444
457
476
497
519
538
555
567
573
573
569
556
536
514
491
470
451
439
434
436
442
456
474
495
515
534
550
560
568
568
560
544
524
502
478
457
439
425
417
415
420
435
452
471
489
508
525
539
545
543
537
523
505
482
461
440
423
412
407
407
413
428
448
472
498
519
536
545
552
552
545
529
508
484
460
435
416
402
395
394
399
414
434
457
479
500
518
531
540
542
539
526
507
484
463
444
428
417
412
412
418
433
452
475
497
517
538
553
561
564
561
547
530
509
488
470
455
444
439
440
448
462
482
504
527
548
568
582
589
590
585
570
552
532
511
490
472
460
453
451
455
469
490
514
537
561
581
598
607
608
605
592
571
547
525
505
487
471
464
464
472
488
509
531
551
571
588
599
604
602
592
575
552
528
505
484
467
455
448
449
456
470
490
513
536
559
577
590
597
598
594
581
560
537
515
496
482
471
464
465
470
482
500
519
540
560
579
593
599
600
595
582
563
540
518
497
479
464
459
459
466
481
500
523
548
571
590
605
613
614
608
595
576
551
525
500
479
463
451
447
449
460
476
496
518
538
557
571
579
582
578
565
548
528
509
489
472
460
454
453
456
468
484
505
526
546
562
571
575
572
564
550
530
508
485
465
447
435
428
419
411
410
414
420
430
437
445
452
455
454
446
428
406
382
357
335
317
302
294
294
298
312
331
352
376
397
414
425
430
428
422
408
390
369
349
332
317
306
300
300
307
321
338
359
382
403
422
436
446
450
448
438
422
403
384
363
345
329
319
313
314
323
337
356
377
400
419
434
444
445
442
428
409
387
361
340
319
303
295
293
298
311
332
355
379
401
423
440
456
463
463
454
440
421
402
385
372
361
356
356
361
376
395
417
440
463
482
495
503
504
500
487
468
447
425
406
388
374
366
366
372
387
409
433
458
481
501
517
526
527
523
511
494
476
456
439
422
410
403
403
408
419
436
459
483
505
525
541
550
552
549
539
523
504
485
466
449
435
430
430
437
452
471
493
516
537
557
571
579
581
578
566
546
524
503
482
464
448
440
440
446
459
479
503
527
549
568
580
589
591
588
577
563
545
523
503
484
470
460
459
462
471
486
506
528
550
568
581
587
587
582
571
552
529
507
485
468
455
449
448
452
463
479
496
514
531
549
569
584
592
596
591
582
568
553
538
525
516
513
516
522
536
556
578
601
621
637
649
659
660
655
641
622
597
574
552
532
519
511
511
516
530
551
576
598
620
641
655
664
665
663
652
638
618
598
577
560
545
536
532
536
545
560
579
596
615
632
643
650
650
643
628
609
589
567
547
529
515
507
504
505
513
527
548
568
588
606
618
625
627
624
614
598
578
557
538
520
505
497
496
500
513
531
551
575
599
617
632
637
640
638
628
611
591
569
549
529
514
506
505
508
517
532
551
570
588
604
617
625
625
619
607
587
565
541
522
508
498
495
495
499
508
523
541
560
577
593
606
613
615
612
605
591
571
549
529
515
502
497
499
504
514
532
553
573
591
608
620
631
634
632
621
604
582
560
541
524
510
500
496
499
508
523
542
564
585
604
616
624
625
622
611
593
575
553
530
511
496
488
484
485
492
504
519
535
550
561
572
578
577
571
558
541
521
503
485
470
459
452
451
455
465
482
500
521
541
561
577
590
594
592
579
564
546
525
503
483
467
459
457
465
480
500
524
546
567
584
596
604
605
600
590
575
558
541
525
511
500
491
488
492
503
518
537
557
576
594
607
615
619
616
606
591
575
555
535
517
502
493
488
491
501
517
537
558
578
596
611
620
624
620
607
586
563
538
512
485
460
438
421
407
399
396
393
388
384
376
363
350
329
302
266
221
174
127
85
51
28
17
16
28
57
101
154
218
291
368
458
538
601
646
669
675
671
664
655
640
624
611
602
594
595
601
612
625
637
646
649
650
647
640
627
607
584
561
539
520
504
494
491
491
501
517
537
557
579
595
609
618
620
616
606
591
573
556
538
520
504
496
492
495
505
519
536
554
572
587
597
603
604
600
589
574
556
536
516
499
486
479
477
480
493
509
527
546
567
586
599
604
603
598
588
571
551
532
512
494
479
469
467
469
477
490
506
521
536
550
558
560
555
545
532
514
491
467
447
431
418
409
406
408
415
428
447
464
480
496
508
515
518
514
503
489
472
452
433
417
403
394
391
391
400
416
434
453
472
488
500
506
508
505
498
484
467
448
428
410
395
385
383
387
397
412
432
453
472
488
500
506
505
501
491
476
459
440
424
411
400
393
390
390
399
412
429
447
464
481
496
507
509
508
501
488
474
458
442
425
413
408
407
410
418
433
451
466
480
494
505
511
512
508
498
479
458
437
419
403
391
386
387
392
401
416
433
451
467
481
494
504
506
503
493
475
456
434
414
394
381
374
372
376
386
401
419
440
459
476
488
497
499
496
487
472
453
435
418
401
387
379
377
382
394
409
427
445
463
480
491
498
499
495
487
473
455
436
418
403
391
384
382
384
393
408
428
448
467
486
499
509
513
512
504
489
471
454
437
424
412
403
402
408
421
439
460
481
503
524
541
552
559
559
554
543
529
512
496
479
467
462
462
467
478
494
515
539
560
580
598
610
615
617
611
598
582
566
550
538
528
524
524
528
540
557
577
600
622
641
657
668
674
676
671
659
642
624
605
588
573
564
559
562
569
584
601
618
636
651
665
673
675
672
661
643
623
600
580
565
553
544
542
544
553
567
583
600
618
632
643
647
644
640
630
614
592
568
546
528
512
503
499
503
513
529
548
568
588
609
626
638
643
643
639
627
612
595
577
559
543
533
529
530
539
552
568
584
600
614
624
632
633
628
618
603
585
566
548
533
519
511
506
507
512
526
542
560
576
591
604
613
617
616
608
593
576
558
540
521
508
499
497
501
509
524
542
562
582
597
608
612
613
609
600
583
563
542
519
502
489
480
475
476
484
496
512
529
548
564
577
583
585
581
570
553
532
511
491
474
460
451
448
450
458
472
491
510
529
548
562
570
573
569
560
543
524
503
481
464
448
438
436
438
447
460
477
496
515
533
548
557
560
557
549
536
519
499
480
461
449
440
437
439
449
462
480
499
519
538
554
565
571
572
563
548
529
510
492
477
465
456
453
453
461
476
493
511
530
548
561
572
575
573
566
551
532
512
493
476
463
454
448
448
455
469
489
512
531
547
559
565
564
560
550
534
515
496
478
462
446
435
429
431
440
455
474
493
512
528
542
550
553
552
545
530
513
494
475
460
447
441
439
443
453
471
489
508
527
542
555
563
565
563
556
542
525
507
489
472
455
444
439
442
450
465
483
501
517
532
544
551
553
550
542
527
511
492
473
456
444
435
435
439
449
464
483
503
523
540
555
564
568
565
557
541
525
507
488
472
460
453
452
455
465
481
500
520
539
557
572
580
583
577
567
551
536
519
502
486
472
462
456
457
464
478
494
512
529
545
557
564
566
564
558
543
526
508
491
473
458
449
445
446
451
462
479
498
518
533
550
561
564
562
553
537
518
495
473
455
439
428
423
423
431
444
461
478
495
512
525
533
536
535
528
514
497
480
463
448
435
428
425
427
436
451
471
493
517
537
553
563
567
564
553
537
518
499
482
466
452
444
439
440
448
462
479
499
519
537
549
558
559
555
547
532
514
495
477
460
445
435
431
434
442
456
474
491
509
525
537
545
549
546
538
523
507
488
470
453
440
430
427
428
434
448
466
485
503
519
532
542
546
544
537
524
507
489
471
455
442
434
433
436
444
459
479
500
521
538
552
561
564
562
555
540
521
502
481
464
447
438
432
433
438
450
466
484
503
519
534
544
548
546
538
525
510
491
471
454
436
424
419
419
426
439
457
476
497
518
536
551
561
564
560
548
533
515
497
481
466
458
453
454
462
477
497
518
537
557
572
582
586
583
575
562
543
524
505
491
480
472
467
470
480
496
516
539
561
582
599
611
614
609
600
584
565
545
525
508
491
479
472
469
474
486
502
519
537
554
567
576
579
575
563
546
527
508
491
477
467
458
454
456
465
478
494
509
522
531
533
532
525
509
485
450
409
365
321
279
238
203
170
144
125
110
97
87
81
82
88
95
100
106
113
123
136
154
181
219
278
343
403
463
513
557
594
626
653
675
689
696
693
682
665
641
616
593
569
547
527
515
507
505
510
522
537
556
575
593
609
620
625
624
617
603
586
566
547
530
514
504
499
500
507
519
538
558
579
599
613
623
626
624
618
606
590
571
551
533
519
509
502
500
507
521
538
559
578
595
610
620
625
623
615
600
580
560
541
524
512
502
495
496
501
513
530
548
568
587
604
615
622
622
615
599
582
562
541
523
508
501
498
499
506
519
536
553
572
590
606
617
624
625
620
605
586
565
545
527
514
508
504
507
515
529
547
565
583
600
614
623
627
626
620
605
586
565
543
523
506
495
491
492
499
514
531
548
565
581
594
606
608
608
602
589
573
555
537
522
509
499
494
495
499
510
525
543
561
579
595
606
611
609
604
589
572
552
531
512
496
485
480
479
484
496
512
531
548
563
574
582
584
583
575
559
541
521
503
486
472
462
455
456
462
475
492
512
532
551
564
574
579
579
572
559
542
521
499
481
465
455
450
451
459
474
495
516
537
555
570
579
583
578
569
554
536
515
495
476
459
447
444
450
460
476
494
514
534
550
564
575
579
576
568
553
535
515
496
478
461
450
444
443
446
457
472
492
511
529
544
553
559
559
551
535
517
497
477
459
441
428
421
420
427
442
460
480
501
520
536
548
556
559
556
544
527
507
488
472
460
454
452
457
467
483
502
523
543
561
579
592
598
599
598
590
575
559
542
523
510
499
494
496
503
518
537
556
572
589
604
614
620
619
615
602
587
570
554
538
524
512
509
512
521
536
556
578
600
617
633
646
650
649
642
628
610
587
565
545
528
516
510
509
515
527
545
564
584
601
615
625
629
626
619
604
588
569
550
533
518
508
501
502
508
523
541
561
582
602
616
625
630
627
621
606
589
567
545
525
509
498
492
493
498
512
531
551
571
591
607
617
621
619
611
597
578
557
535
515
497
484
477
478
484
496
513
535
556
575
591
603
608
607
600
585
567
546
526
509
495
484
480
484
492
507
522
541
560
576
590
596
599
596
589
575
559
540
521
504
489
479
473
472
477
491
507
526
546
564
579
590
595
595
590
576
558
536
515
499
484
475
472
472
477
490
507
525
543
561
576
587
593
593
586
571
554
534
515
498
485
475
469
469
473
486
502
521
539
555
571
583
589
588
583
569
551
531
512
494
479
468
463
461
465
477
495
514
535
554
571
583
592
594
590
576
558
536
516
499
485
476
471
471
477
491
509
527
546
565
579
591
597
595
586
571
551
530
510
490
472
460
455
456
462
476
492
511
531
551
566
576
580
578
571
556
539
519
498
480
465
453
447
448
455
468
486
504
520
536
548
558
562
560
555
541
521
502
481
461
447
437
431
432
439
452
471
491
512
532
548
559
562
560
554
540
523
504
484
465
451
440
434
433
440
453
473
493
512
529
541
550
555
553
547
531
512
491
467
446
429
416
410
410
416
428
445
463
482
500
517
528
534
534
527
512
494
472
450
431
414
402
395
395
399
412
429
450
470
488
503
515
520
519
511
496
480
460
441
424
410
402
399
401
408
421
439
459
479
498
513
524
529
529
524
510
492
472
453
436
421
410
406
407
415
430
449
470
489
510
527
541
549
551
546
533
515
496
478
460
446
435
429
431
437
449
466
486
507
527
545
559
567
570
565
553
537
518
498
479
462
450
444
445
452
465
483
502
521
540
556
567
570
568
561
547
527
505
483
466
450
439
434
434
440
455
473
495
516
537
555
569
575
575
569
557
541
521
502
483
467
457
451
453
459
473
492
512
532
552
569
579
584
582
575
560
541
520
501
480
462
447
438
438
442
455
472
491
511
529
543
554
558
557
550
535
517
496
474
455
440
429
424
426
433
448
467
492
515
537
554
567
572
569
562
546
527
505
483
465
449
438
433
435
441
455
472
490
510
528
544
555
559
554
546
529
509
488
466
446
430
420
417
420
428
445
465
487
509
529
546
560
568
569
562
550
533
514
494
477
461
449
443
443
450
465
484
504
524
545
562
574
578
577
569
554
535
514
492
472
455
442
436
438
444
459
477
497
516
535
548
558
562
562
558
544
528
510
491
473
458
447
442
445
451
467
486
508
529
548
562
575
581
581
577
565
547
526
506
487
470
459
453
455
460
473
492
511
532
551
566
578
585
585
578
563
545
524
504
485
468
456
450
450
455
470
488
510
532
550
567
579
583
582
574
558
538
516
496
476
462
451
444
443
447
462
482
505
531
554
574
587
592
589
579
559
533
503
473
441
411
384
360
337
319
308
301
295
286
277
267
251
227
192
154
115
78
47
19
0
0
0
0
0
34
87
156
245
349
445
529
595
639
667
680
679
666
646
622
598
576
560
551
548
551
560
577
598
620
639
657
672
680
681
676
663
645
624
603
583
564
552
546
547
553
569
590
614
639
662
682
699
708
710
707
691
673
651
628
608
590
575
566
565
569
581
600
622
643
663
679
691
696
694
687
671
652
630
607
586
569
558
553
555
561
577
594
614
635
654
669
680
686
685
677
659
639
615
591
570
552
539
531
530
532
546
564
585
606
627
644
657
664
663
655
639
620
595
572
551
533
519
511
513
519
535
553
574
594
612
625
635
640
639
634
618
599
578
552
529
510
496
487
484
489
503
522
543
564
584
601
615
623
624
619
605
587
566
545
527
512
502
496
496
502
515
532
552
570
587
601
612
616
615
607
593
575
552
530
510
494
482
474
473
477
487
504
523
544
564
582
595
602
605
600
587
568
547
526
507
491
478
471
471
477
490
508
528
550
568
583
594
599
600
595
580
562
540
518
497
480
466
459
459
465
479
497
518
540
560
577
589
594
595
591
578
561
539
519
499
483
473
467
466
471
483
499
518
535
553
569
581
587
588
585
572
554
532
511
491
473
459
450
449
453
466
482
501
519
536
552
564
571
572
566
553
539
518
496
475
457
446
439
439
443
455
470
487
507
526
542
551
555
551
543
526
507
485
464
445
427
414
408
409
414
426
445
463
484
504
522
534
540
541
536
524
510
492
471
453
437
425
419
419
424
438
455
476
496
517
536
549
558
561
559
549
534
515
496
479
464
453
448
449
457
474
493
515
537
557
573
586
593
594
588
574
557
535
515
497
482
470
461
457
461
473
490
509
529
549
566
579
585
585
579
568
554
535
516
496
478
463
454
452
454
466
484
505
526
545
562
579
590
593
587
573
556
536
517
501
485
474
468
468
474
488
507
528
552
575
593
610
619
622
616
604
588
566
544
525
508
496
488
487
490
500
517
535
553
573
589
601
608
606
599
584
566
543
520
499
480
467
457
457
460
471
488
508
530
551
569
583
591
591
583
571
553
534
514
495
480
467
460
461
468
484
503
524
544
564
582
595
603
604
600
587
568
543
520
500
483
470
463
463
466
478
495
514
535
554
570
580
587
587
584
573
557
538
519
500
483
471
461
460
465
478
495
513
534
552
569
583
588
587
581
568
551
531
511
492
475
461
453
453
458
470
488
508
527
545
561
575
582
584
582
571
553
532
511
491
473
459
451
451
455
467
484
503
521
539
553
564
568
566
559
547
529
509
487
467
449
437
430
426
429
440
458
480
500
519
537
552
562
567
564
552
536
517
497
480
465
454
446
446
451
465
485
506
527
547
565
578
584
586
582
571
553
532
511
489
469
456
447
446
449
461
478
499
520
540
555
570
578
579
575
563
545
524
504
485
469
457
451
451
454
467
484
504
525
545
562
576
583
583
577
564
549
532
513
496
481
471
465
465
468
480
496
515
535
551
567
580
588
589
582
568
550
527
506
485
467
453
444
441
442
452
468
486
505
524
539
551
560
561
557
545
529
509
487
465
447
431
421
419
422
433
448
467
486
504
519
531
538
540
536
524
507
485
463
443
425
413
405
404
408
420
439
459
480
501
518
532
540
540
536
524
507
486
467
448
432
419
413
412
415
425
441
461
483
502
520
535
543
544
538
526
508
487
464
442
423
411
404
403
407
420
440
461
485
507
524
537
544
544
537
524
506
485
463
442
423
407
398
396
399
412
431
451
471
490
507
519
526
527
523
511
494
474
453
433
415
403
394
392
396
408
427
448
469
491
511
527
536
537
532
520
505
485
465
447
430
419
411
412
417
430
448
469
492
511
527
541
549
550
547
537
523
503
482
462
444
429
419
416
421
432
449
468
489
510
528
543
553
558
556
547
531
512
493
474
459
447
439
438
443
455
474
496
517
536
552
564
573
575
568
555
535
513
490
467
447
432
421
418
422
433
449
469
490
508
526
540
550
553
549
537
519
498
477
457
440
426
418
417
423
435
453
474
495
515
534
548
557
559
556
546
528
509
487
467
448
433
423
421
426
439
455
478
501
521
538
551
558
559
553
542
525
507
486
467
451
438
431
432
436
448
465
485
505
523
540
552
559
561
558
546
529
508
487
465
447
433
423
422
425
435
451
470
490
510
527
541
550
553
551
540
522
500
477
454
432
414
402
401
407
419
438
459
480
500
520
537
549
553
549
540
524
504
483
461
445
432
425
425
431
444
463
485
508
530
550
566
576
580
579
569
554
534
512
491
472
458
450
448
450
464
484
506
529
550
568
583
591
593
587
575
559
538
517
498
481
469
463
462
465
478
496
519
541
560
578
593
603
607
604
592
574
552
533
515
499
485
476
471
469
475
486
497
511
521
526
524
515
497
471
436
396
353
307
261
216
177
140
106
76
61
59
69
85
103
122
142
163
185
211
234
262
298
350
400
446
486
517
543
567
590
614
637
655
671
683
691
693
692
685
669
647
623
600
579
560
546
536
533
536
548
567
589
612
635
653
669
678
680
677
666
648
626
603
581
563
547
535
530
530
536
550
567
587
607
625
640
649
652
649
637
621
600
575
553
534
519
509
505
509
519
537
558
579
602
619
632
639
639
631
617
597
573
546
520
498
482
471
468
471
483
500
522
544
565
583
596
604
606
603
593
577
555
532
509
491
477
467
465
467
478
497
518
542
567
587
604
615
619
616
606
589
567
545
523
505
490
481
477
481
493
511
531
551
571
589
602
609
611
605
593
573
548
523
499
478
463
455
455
462
475
492
513
535
556
576
592
600
604
600
588
569
544
520
498
479
462
450
446
447
455
472
491
512
533
554
570
579
581
576
562
543
520
496
473
454
439
430
428
433
444
464
487
510
529
548
563
572
576
572
560
543
520
497
473
452
437
426
423
426
436
451
471
493
513
531
548
557
558
553
540
521
499
476
454
434
419
412
412
417
430
451
476
502
526
548
567
578
581
577
566
546
523
498
474
455
440
430
427
430
440
455
473
495
515
534
549
559
562
559
550
532
510
486
463
441
425
414
408
411
422
441
464
490
513
532
548
557
560
554
542
525
505
483
461
440
422
411
408
411
421
438
462
487
511
533
552
564
570
571
564
551
534
515
495
478
464
455
451
455
467
488
512
537
560
579
595
605
611
608
597
580
561
540
520
502
487
479
477
480
491
510
532
558
583
607
625
636
640
638
628
610
588
561
536
514
499
490
490
496
510
529
552
578
600
622
639
648
648
642
630
610
587
563
540
518
501
492
489
494
504
523
545
568
591
610
626
633
635
630
618
599
575
548
524
502
484
470
466
469
481
499
520
543
566
587
606
617
624
621
610
592
569
546
523
501
485
473
469
472
483
502
524
547
569
588
603
612
615
611
600
582
559
535
511
488
471
458
454
458
470
489
510
532
555
576
593
601
605
604
595
579
557
532
510
491
478
470
469
474
486
504
525
548
569
588
604
614
617
614
603
587
564
541
519
499
482
470
466
468
478
496
515
537
562
583
601
612
614
611
599
581
558
532
509
489
473
464
461
463
473
492
515
541
566
588
605
615
619
617
604
584
559
530
504
481
463
451
446
447
454
468
489
513
536
557
573
581
583
580
569
551
527
502
478
456
440
429
427
431
443
462
484
509
532
551
567
576
580
576
564
544
518
491
465
443
425
413
408
411
420
440
464
492
517
540
559
571
576
574
563
544
521
498
472
451
435
424
421
425
436
455
478
502
527
548
564
575
577
571
557
536
512
489
467
447
432
421
419
423
436
458
481
506
529
551
569
580
583
580
569
550
527
502
476
455
435
421
414
413
420
437
455
475
493
510
524
533
536
531
515
491
463
433
402
376
354
341
336
338
350
368
388
412
435
455
473
484
489
486
473
454
430
405
381
360
343
333
330
335
344
363
386
412
437
460
479
490
495
495
485
468
446
421
398
378
364
355
355
361
374
395
420
446
471
494
512
524
530
529
520
504
483
460
438
417
402
392
392
397
410
432
457
484
510
532
551
564
567
561
549
530
507
483
459
438
423
414
411
414
423
441
461
484
509
530
549
562
568
565
554
534
510
485
461
437
419
407
403
405
415
436
460
486
510
531
547
557
560
556
545
526
503
479
457
437
420
408
404
406
418
440
465
492
515
536
555
566
571
569
560
543
519
493
468
446
429
417
413
415
425
445
468
493
518
541
561
574
579
577
565
545
522
497
473
452
435
423
420
423
433
453
475
500
524
547
564
577
584
582
572
553
529
504
478
457
441
432
431
438
452
473
497
524
549
571
589
600
605
605
597
580
558
533
508
486
469
457
451
454
463
480
504
528
553
575
592
602
607
604
592
573
551
529
505
484
467
455
450
453
463
483
507
534
558
579
598
611
617
615
604
585
561
537
513
492
477
467
464
468
479
498
519
543
567
588
606
619
623
620
611
595
574
550
526
503
484
470
464
465
473
490
512
537
561
583
602
614
618
615
604
586
561
534
508
483
463
449
442
443
454
473
494
518
543
564
582
593
597
594
583
563
538
512
487
467
451
439
434
435
445
465
489
517
542
564
582
592
596
592
583
566
543
518
495
473
456
446
443
447
457
476
498
522
545
568
587
598
605
605
595
577
553
527
502
479
461
448
443
444
453
472
495
521
548
572
592
604
609
606
595
577
555
531
508
488
472
461
460
466
480
500
523
548
573
595
614
627
636
634
625
610
591
571
551
534
521
514
513
519
534
556
580
606
632
655
675
687
692
688
678
660
637
609
583
561
543
530
524
527
539
561
585
609
630
646
657
661
657
643
620
587
545
500
454
408
368
333
305
284
271
264
264
265
263
259
256
254
255
255
252
249
244
243
247
260
283
316
366
429
491
556
613
664
710
747
776
792
798
793
776
751
720
687
655
627
604
586
578
578
583
599
619
641
663
683
701
710
711
703
689
669
645
619
592
572
555
544
538
539
548
565
585
608
632
653
671
680
684
679
666
647
623
597
570
545
525
510
503
504
512
532
556
582
608
631
651
662
667
663
653
633
609
581
555
533
516
503
498
499
505
521
540
565
588
610
627
638
639
634
621
600
575
547
521
499
479
463
456
457
465
484
507
531
555
575
592
603
607
603
593
574
551
525
500
478
460
447
445
449
460
481
506
533
560
583
604
615
621
619
608
590
565
540
515
494
476
465
461
464
473
493
514
539
563
584
603
616
624
623
613
595
572
547
524
501
481
467
461
463
472
492
513
536
560
580
598
607
609
606
596
575
551
525
500
476
459
448
444
446
455
474
499
525
550
572
591
605
609
608
598
578
554
527
500
477
458
445
439
443
453
473
498
524
548
570
589
602
607
604
595
577
556
530
505
483
465
453
446
447
454
472
494
516
540
561
579
590
592
587
575
556
531
504
477
452
434
421
415
416
424
443
465
491
517
540
560
572
576
573
563
545
521
496
470
447
428
415
409
411
421
438
458
481
505
526
543
551
553
548
538
518
493
465
440
417
398
385
381
383
391
410
434
462
489
