467
489
566
647
711
735
727
698
643
570
493
440
422
422
430
439
449
457
461
459
453
472
540
614
672
695
688
662
614
552
487
444
433
436
446
457
467
475
478
476
472
488
550
615
665
685
679
656
613
558
500
462
450
451
456
463
469
475
478
478
475
490
542
596
640
655
648
629
593
545
495
460
449
449
453
457
462
465
463
459
453
464
507
551
588
601
598
582
551
510
464
431
416
407
401
394
385
374
357
336
311
300
316
335
347
339
316
283
235
180
129
92
76
77
87
102
121
146
175
206
240
292
373
461
535
585
613
621
613
597
577
564
564
566
568
569
568
567
561
553
542
541
561
585
605
610
605
590
567
539
509
487
480
479
481
484
487
492
494
495
496
505
531
559
582
591
589
581
563
541
515
497
491
490
493
496
498
500
499
498
495
499
522
547
569
578
576
569
560
551
542
535
530
526
524
523
520
516
509
503
496
494
499
507
514
519
519
519
518
517
513
511
510
508
508
506
504
499
492
485
476
471
475
481
488
489
488
486
483
479
476
475
473
472
473
473
473
473
471
470
465
465
472
481
490
494
495
496
497
499
499
500
503
507
512
515
519
521
519
514
508
504
509
515
521
523
523
521
518
513
508
504
502
502
504
506
507
508
506
505
502
502
508
515
522
523
519
514
507
500
493
488
486
485
486
487
487
485
481
478
472
471
476
483
490
493
495
494
492
489
487
485
484
483
483
481
481
480
476
471
465
462
466
473
480
483
483
482
481
479
475
472
470
466
463
460
459
456
452
448
443
441
447
453
459
460
460
460
460
459
458
459
460
461
463
462
460
457
452
448
443
442
448
456
463
464
461
457
453
451
448
450
455
462
470
476
479
478
475
471
466
465
472
480
487
489
491
492
491
488
484
480
477
473
471
469
466
463
458
451
444
443
450
457
464
468
470
471
471
471
471
470
473
475
477
480
482
484
483
481
479
480
490
501
511
517
521
524
526
528
529
531
533
537
541
543
545
547
547
544
539
536
542
550
557
560
561
561
559
556
555
555
556
556
559
566
574
581
585
586
585
587
596
607
617
622
624
625
622
618
613
610
609
610
611
612
613
611
608
606
601
599
605
611
615
613
607
599
593
588
582
580
580
582
585
588
589
590
589
587
583
583
589
595
601
603
601
599
593
587
582
579
577
577
579
579
578
576
571
565
556
551
555
560
564
566
565
566
567
567
568
569
569
570
570
568
566
566
564
562
557
555
559
565
571
574
574
571
568
563
558
555
555
555
558
559
559
556
553
549
543
541
546
551
556
556
554
551
547
542
535
531
531
531
531
532
532
532
531
528
523
519
524
529
531
528
524
518
510
503
497
493
491
490
490
488
486
483
481
477
475
474
483
492
502
508
511
511
509
506
502
499
497
497
499
501
503
504
504
504
502
500
506
513
519
521
520
518
515
513
511
510
512
514
516
518
519
519
519
518
515
515
523
531
538
540
538
536
532
527
524
520
518
516
516
514
512
509
505
504
502
504
511
519
526
528
528
527
523
518
513
511
510
510
511
511
510
510
508
506
502
503
510
516
523
524
524
520
515
510
504
500
498
497
497
496
496
494
492
490
487
488
496
504
510
512
511
508
503
498
493
489
486
484
483
482
482
482
480
478
476
477
484
492
498
500
500
499
497
493
490
487
486
485
486
487
487
488
488
487
486
487
495
503
510
512
512
511
507
503
498
496
496
496
498
498
498
499
499
497
494
495
502
509
514
515
515
513
508
504
499
497
497
499
499
500
501
501
499
497
495
495
502
509
516
519
519
520
519
518
514
512
511
511
514
515
515
515
513
510
506
508
516
525
532
535
535
534
531
529
525
523
523
523
524
523
524
523
521
519
518
519
527
534
541
542
542
538
533
529
522
519
516
514
515
514
514
514
513
511
509
508
514
521
527
530
531
529
525
521
515
513
512
512
515
515
514
512
510
508
504
503
508
514
519
520
520
518
514
510
505
502
502
502
503
504
504
504
503
501
498
499
507
514
521
524
524
520
516
513
508
505
504
504
506
506
506
505
504
503
501
502
509
517
524
526
525
523
519
516
512
510
510
512
515
515
516
516
516
515
513
513
521
529
536
539
538
537
533
530
526
523
522
523
524
524
525
525
523
521
519
520
528
535
542
545
546
545
542
538
533
531
529
529
531
533
534
534
531
529
525
525
531
536
543
544
543
540
535
530
525
522
521
520
521
521
521
521
519
517
514
514
519
527
532
533
531
529
524
519
512
508
505
503
502
499
497
496
495
493
490
492
499
507
513
516
515
513
511
508
504
504
505
507
509
510
511
511
510
509
506
507
514
522
529
532
532
531
527
523
516
513
513
514
516
517
518
516
513
511
508
509
516
525
532
534
532
529
525
521
515
512
511
511
511
511
511
511
509
506
501
500
509
518
527
533
536
535
531
525
515
507
499
491
482
470
457
442
422
399
375
350
333
317
300
279
255
231
207
179
152
131
116
109
111
118
130
151
179
212
248
294
352
419
482
532
571
597
614
627
635
642
649
651
650
647
641
635
625
616
606
600
601
603
605
602
598
592
586
579
572
566
563
561
561
560
560
560
558
555
550
549
554
560
566
568
566
562
557
551
544
540
538
537
538
537
537
536
534
532
528
527
532
538
544
545
543
540
533
527
520
516
514
513
514
513
513
512
508
504
498
495
502
511
521
527
526
524
519
513
505
500
498
497
497
496
496
495
492
489
485
485
494
505
516
521
521
519
515
508
500
493
487
484
484
484
486
488
487
488
487
490
500
513
523
527
527
525
519
513
506
499
495
495
496
497
497
498
497
496
493
494
503
513
524
530
531
529
524
517
509
502
498
496
495
495
496
496
496
495
492
493
503
515
527
535
537
536
530
523
512
503
497
496
495
495
496
496
495
494
492
494
505
516
527
532
532
529
521
511
501
495
491
489
488
488
488
489
487
486
482
483
492
504
514
519
518
515
508
499
488
480
476
474
474
475
476
476
475
474
471
471
481
493
503
508
507
503
495
484
472
464
460
459
459
459
459
459
457
455
452
453
463
475
485
489
488
484
477
467
456
448
444
444
445
447
448
450
449
447
444
444
455
467
477
481
481
478
471
461
451
443
440
440
440
443
445
447
446
446
444
446
457
470
483
489
491
488
481
472
462
455
454
454
456
457
460
462
463
464
462
465
479
493
507
514
516
515
511
504
497
492
492
495
498
502
505
509
512
514
515
518
532
547
560
567
568
568
561
553
543
537
536
537
540
542
544
546
546
547
545
547
560
575
588
594
594
591
583
575
564
557
555
556
559
560
560
562
562
561
560
561
574
587
598
604
604
600
591
581
570
561
558
558
559
560
562
562
561
560
556
557
568
580
591
596
595
592
585
575
563
555
551
550
551
552
552
553
552
550
548
550
561
573
584
588
587
583
574
563
551
543
539
538
540
540
541
542
540
539
536
537
548
560
571
575
573
568
560
551
539
531
527
527
527
527
528
529
527
526
523
525
537
550
560
563
562
557
549
539
527
518
515
513
515
515
515
515
513
511
509
511
523
536
547
551
549
544
536
525
513
504
501
501
502
502
503
504
504
502
501
503
515
528
540
545
544
541
532
521
510
501
498
497
498
498
499
499
499
498
496
499
512
526
538
542
541
538
530
519
507
498
496
495
496
497
498
498
497
497
495
496
509
523
536
541
542
538
530
520
509
502
499
499
500
501
502
503
502
500
498
500
512
524
536
539
539
536
528
518
506
497
495
494
496
497
499
500
499
497
495
497
508
522
534
539
538
534
527
517
506
498
497
497
499
501
503
504
503
501
499
500
511
524
535
539
537
533
525
515
504
495
492
492
493
494
496
497
496
495
493
496
509
522
534
539
537
532
523
513
502
495
492
492
494
496
497
497
496
495
492
492
504
516
526
531
531
527
519
510
499
492
491
490
492
494
496
497
497
496
494
497
508
520
532
536
535
530
521
511
499
492
491
491
493
494
495
497
497
498
497
500
512
526
538
543
542
538
531
520
508
499
495
495
496
497
498
498
497
496
494
497
509
521
532
537
536
530
522
512
502
494
493
494
496
497
499
499
498
497
493
495
507
521
532
536
534
530
521
510
499
492
489
488
489
491
493
495
495
495
492
494
506
519
532
537
536
532
524
514
504
497
494
494
496
496
496
497
496
494
491
494
508
521
534
539
537
532
524
514
503
496
494
495
497
497
498
497
495
493
490
492
504
518
529
534
534
530
522
513
502
494
492
492
494
496
497
498
499
498
496
499
512
524
535
539
538
534
525
516
505
498
497
498
500
501
503
504
502
499
495
496
508
521
532
535
535
530
521
510
496
487
484
484
486
487
489
490
489
488
486
486
499
513
525
528
527
523
515
504
491
482
478
478
479
481
483
486
487
488
487
491
506
521
534
540
540
536
528
519
508
500
498
498
499
499
500
499
498
497
495
497
509
523
536
542
542
539
530
521
510
502
499
499
502
503
504
506
505
505
503
504
516
529
540
543
542
537
527
516
504
496
494
494
497
499
503
507
510
512
511
513
524
533
538
534
524
508
487
462
435
407
384
359
335
311
287
264
240
215
192
172
161
155
150
143
138
135
134
137
151
175
209
250
298
353
416
472
517
553
577
599
626
652
673
682
682
676
664
647
629
614
605
599
595
592
588
585
580
575
569
568
577
590
601
604
602
597
587
575
561
552
550
550
551
553
554
555
554
553
550
551
563
576
588
591
588
583
573
562
549
540
536
534
536
536
537
539
537
535
532
534
547
560
573
579
577
574
566
556
543
535
532
532
536
537
538
538
536
534
530
532
543
556
567
571
569
564
555
545
533
526
523
522
523
524
524
525
524
522
520
522
534
547
559
563
562
558
549
539
527
519
517
516
516
516
517
518
516
515
513
514
526
539
550
553
553
548
541
530
519
512
511
511
513
515
517
518
517
515
512
513
525
537
548
552
551
547
539
529
518
512
509
509
511
512
512
512
510
509
505
506
518
531
543
547
547
542
532
523
512
505
503
503
504
505
507
508
506
504
502
503
515
528
540
543
542
537
528
518
506
498
495
493
493
494
495
496
494
493
490
491
504
516
528
532
530
525
515
504
491
483
480
480
480
481
481
481
479
477
473
475
486
498
508
512
510
505
496
486
474
466
464
464
466
467
468
469
468
464
461
463
475
489
499
504
502
496
487
477
465
458
456
457
458
459
460
460
459
456
454
456
469
483
494
498
497
494
486
476
464
457
456
457
460
462
464
466
466
464
461
463
478
492
504
510
510
508
501
493
483
479
479
481
486
489
494
497
499
500
501
506
522
539
553
559
562
560
555
548
539
532
532
533
536
540
544
547
549
549
548
553
568
583
597
604
604
601
593
583
573
566
564
565
568
569
572
573
573
572
570
573
586
601
612
616
615
611
603
593
582
575
572
571
572
573
574
575
574
573
571
574
587
600
612
615
613
608
599
588
576
569
567
567
568
568
569
569
568
566
563
565
577
590
601
604
602
597
588
576
564
556
554
554
557
558
560
560
560
559
558
560
572
584
595
597
595
591
582
571
560
551
549
549
551
551
552
552
550
548
545
548
560
574
585
590
589
584
575
564
553
545
542
541
542
543
545
547
547
547
545
547
560
574
585
588
587
581
572
561
549
540
537
537
538
539
540
541
540
539
536
538
550
563
575
579
578
573
564
553
542
534
531
531
533
535
535
535
533
531
528
530
542
555
567
570
570
566
558
548
536
528
526
526
527
528
528
529
528
526
523
524
537
549
560
563
560
556
548
537
526
519
517
517
519
522
524
525
524
522
519
520
532
544
555
560
559
556
547
536
524
516
514
513
514
514
515
516
514
512
508
510
522
535
547
551
550
546
539
529
518
511
508
508
510
511
512
514
513
511
508
510
522
536
547
551
549
545
536
526
513
505
503
503
505
506
508
509
509
508
506
508
521
535
545
550
548
544
536
526
514
506
503
503
504
505
505
507
505
504
500
502
515
529
540
543
541
537
528
519
507
498
496
496
497
497
499
500
499
499
497
499
513
527
538
542
540
535
526
515
505
497
495
495
496
497
499
499
499
497
494
496
508
521
534
538
537
533
525
515
504
496
494
494
496
497
498
499
499
497
495
497
511
525
536
541
540
536
527
517
506
498
496
496
498
499
500
501
501
499
496
498
510
524
537
541
541
537
528
517
506
497
495
495
497
497
499
499
498
497
496
498
511
526
537
541
539
534
525
515
504
496
494
494
496
497
499
499
498
497
495
497
509
522
534
538
537
532
524
513
502
494
491
490
491
493
494
495
494
493
490
492
504
518
530
535
534
529
519
508
497
488
486
486
487
485
485
486
485
485
483
487
500
513
527
527
522
517
512
503
489
483
486
487
489
487
487
484
477
469
462
468
483
499
511
517
516
512
507
497
485
479
477
478
478
479
481
481
484
482
479
481
495
508
520
524
524
523
514
500
487
478
479
478
472
472
473
471
471
468
466
470
482
496
507
511
510
507
498
487
474
465
462
463
464
463
465
467
467
468
465
469
483
497
510
515
514
511
503
494
482
477
477
478
482
485
488
492
492
491
489
491
500
513
524
527
525
522
515
507
496
487
485
486
487
491
493
495
495
494
492
495
508
521
535
541
542
539
531
519
507
499
497
497
499
500
503
504
501
500
497
498
511
524
535
540
538
534
528
518
507
501
501
506
509
510
510
508
505
495
484
475
475
472
468
454
432
404
373
340
305
271
245
219
197
176
152
127
109
96
88
88
103
126
155
185
215
245
274
309
356
408
459
504
540
568
593
612
624
627
625
626
636
646
653
650
644
636
624
608
590
583
579
576
580
579
580
582
581
578
575
577
586
597
607
610
608
602
595
583
569
559
559
561
563
563
563
564
565
563
561
563
578
591
604
608
604
599
590
577
563
552
549
549
551
552
554
555
555
556
553
556
570
583
593
598
594
588
576
562
548
538
536
534
534
535
538
540
536
536
534
535
547
562
574
576
574
567
557
544
531
523
519
519
521
522
524
527
528
525
523
526
536
547
557
562
562
555
545
535
520
510
507
505
506
508
513
516
516
516
511
512
524
534
542
543
542
539
532
523
508
496
496
500
505
508
512
511
508
506
501
501
513
526
538
542
540
534
526
515
504
495
492
493
496
497
497
496
495
494
491
493
506
519
531
535
535
531
522
512
501
493
489
486
487
487
487
487
487
484
483
485
496
510
520
524
524
519
511
500
489
482
481
480
481
480
480
481
481
480
478
480
490
504
515
520
518
513
504
492
479
472
469
469
470
471
472
473
472
470
466
467
479
492
503
507
506
501
491
481
468
460
457
457
459
460
462
463
463
462
458
461
473
487
497
500
497
493
485
474
462
455
451
451
453
455
456
459
459
460
457
460
474
487
500
504
504
499
489
479
467
459
455
455
458
458
458
457
454
452
449
453
469
487
503
511
513
512
505
497
487
483
484
487
493
498
503
508
511
513
513
518
533
550
563
569
572
571
566
556
546
539
536
537
540
541
543
544
543
544
543
545
558
573
585
592
593
590
583
574
563
555
553
554
553
554
555
556
557
558
556
558
572
586
600
604
603
600
588
574
558
548
543
544
547
550
553
553
551
549
546
547
562
579
590
594
595
590
580
571
559
549
545
540
539
539
538
539
535
531
529
536
553
570
583
585
583
574
563
556
546
539
536
536
540
540
544
546
543
542
539
539
552
561
573
575
574
567
553
545
533
523
519
517
520
525
526
527
527
524
524
525
539
556
566
569
567
562
555
545
531
523
517
521
526
525
526
520
519
516
512
519
532
546
559
563
559
559
552
545
532
523
521
524
523
518
523
523
524
521
517
522
537
550
561
565
561
556
543
531
522
514
513
516
519
517
518
519
515
515
513
515
528
543
555
560
559
555
546
536
524
515
515
516
517
516
516
516
516
515
512
514
527
542
554
559
559
555
546
536
524
516
514
515
517
518
519
522
523
521
518
520
535
550
562
567
564
560
551
540
527
518
515
515
518
519
521
524
524
524
521
523
536
550
560
566
563
560
555
543
531
523
522
523
523
521
521
522
521
520
517
520
533
546
558
562
561
557
547
535
520
511
507
509
512
512
513
514
511
511
509
509
521
537
547
550
550
543
533
520
507
497
492
494
495
495
496
497
496
493
489
490
504
518
529
532
527
523
515
507
495
486
486
484
484
483
483
483
482
480
477
479
492
504
518
525
527
523
514
504
490
480
480
481
482
484
487
491
489
487
486
486
497
513
526
529
527
524
516
508
499
492
487
487
487
488
488
493
496
496
494
495
507
519
530
532
529
525
515
505
493
484
483
484
487
486
486
488
487
483
480
480
495
513
528
535
535
532
525
516
506
499
497
500
502
502
500
502
499
496
492
494
505
521
534
540
537
532
525
514
502
492
488
489
489
491
495
496
497
497
496
498
510
523
532
539
536
536
527
515
503
494
487
486
486
487
492
494
495
494
489
492
504
519
531
536
539
536
525
514
502
494
489
489
489
489
487
487
484
482
479
481
495
509
519
521
521
519
512
503
493
487
482
478
478
478
477
475
479
480
478
479
494
510
524
528
525
521
513
503
492
485
483
481
483
487
490
493
493
490
487
490
502
517
530
535
534
529
518
507
495
487
485
487
491
493
494
496
496
495
492
491
505
519
529
536
536
532
524
512
500
492
489
490
492
494
497
498
497
494
491
495
508
523
536
541
542
537
531
520
508
499
495
495
496
496
497
497
495
493
492
492
505
519
529
528
529
530
523
513
503
496
494
492
491
492
494
492
489
488
484
482
496
512
526
527
526
529
520
510
500
498
498
499
500
500
501
503
504
503
503
504
513
526
540
545
544
541
534
522
511
502
499
496
497
504
502
502
505
507
503
504
518
531
542
546
546
543
536
527
515
506
504
500
501
502
503
501
499
500
499
501
513
528
542
549
549
545
534
526
517
510
507
504
501
496
491
483
467
452
435
424
419
416
407
389
365
338
308
274
239
209
184
161
140
124
110
105
107
112
124
146
187
230
276
318
362
410
455
490
513
538
560
576
594
608
617
619
617
610
599
595
601
611
619
619
612
604
591
578
563
553
549
546
545
547
548
548
547
545
543
545
556
571
585
589
585
579
573
562
550
542
540
540
541
542
539
539
537
535
533
536
548
563
577
584
586
582
574
565
555
550
547
547
545
545
546
547
550
546
544
547
562
575
586
591
589
582
575
567
551
543
542
542
543
547
550
549
550
548
544
543
553
565
577
583
583
579
565
551
539
537
536
534
534
532
532
536
535
535
532
532
544
559
575
580
580
574
564
551
541
532
529
527
530
529
535
539
538
535
531
529
541
552
563
565
563
558
549
539
527
520
519
518
517
518
516
515
515
511
504
508
522
540
553
559
559
556
548
535
521
511
504
502
508
509
510
509
508
504
500
500
511
526
539
543
541
538
531
520
509
500
498
497
499
501
500
498
497
497
494
497
505
518
530
535
537
532
525
516
504
494
491
490
488
488
490
489
488
484
481
480
491
504
516
525
523
519
512
500
486
477
472
474
472
472
471
473
472
470
467
466
479
494
506
513
514
512
504
492
478
467
462
459
458
457
459
459
461
462
459
459
470
481
491
489
487
485
476
464
453
446
445
446
448
450
452
456
457
454
453
453
467
485
495
500
501
497
490
480
469
461
459
460
464
465
466
467
469
469
468
474
492
509
524
531
533
530
524
515
504
497
497
498
502
507
510
519
519
515
514
517
530
547
560
569
574
574
568
561
554
550
550
551
554
558
561
563
561
559
556
558
572
591
603
608
608
607
601
591
577
569
564
565
568
570
571
572
571
569
565
563
579
595
608
612
611
604
591
578
564
553
548
547
549
548
547
552
555
556
552
552
565
579
590
591
591
587
577
570
554
543
539
536
536
536
534
534
534
532
528
528
543
559
571
575
575
570
560
550
538
527
524
524
524
525
526
527
527
526
524
524
537
555
570
575
574
569
562
544
534
526
523
524
524
520
522
522
521
519
517
515
527
543
557
561
564
560
550
538
528
521
515
508
505
504
504
505
503
500
497
498
511
525
536
540
540
539
532
519
505
497
491
490
492
495
496
496
494
496
494
496
509
525
539
544
543
539
532
521
507
497
492
490
491
493
494
494
492
490
484
487
504
520
531
535
536
532
526
519
505
496
498
500
502
504
501
502
504
498
492
492
505
519
531
536
536
534
525
515
503
495
492
493
496
498
500
501
499
499
499
500
511
526
539
547
547
544
535
522
508
499
495
492
492
494
495
498
497
493
489
490
501
515
527
531
529
526
519
510
499
493
492
492
493
494
496
497
499
497
493
492
504
519
532
538
539
538
532
521
509
501
497
496
494
494
495
495
492
492
489
491
504
515
528
533
534
531
523
514
503
495
492
492
493
494
495
497
497
495
489
489
501
517
531
539
537
532
526
517
508
499
496
496
497
499
500
502
501
497
492
492
503
515
527
534
534
530
526
517
507
496
492
495
494
495
497
498
498
496
493
492
504
516
529
535
535
533
525
514
502
496
495
494
496
496
499
500
500
499
496
497
508
521
532
536
535
532
526
518
507
500
497
496
497
498
499
500
500
497
495
495
507
521
532
536
536
533
526
516
507
501
499
498
500
503
505
508
507
506
503
503
514
527
539
545
547
546
540
531
519
510
504
502
502
503
503
503
501
498
494
493
504
518
529
536
537
535
530
523
513
508
508
507
505
505
507
509
508
505
502
501
511
524
536
542
543
541
536
527
518
512
511
511
512
513
514
515
512
509
506
506
517
530
542
547
545
541
534
525
515
508
505
505
506
507
508
510
509
508
505
505
516
530
542
548
547
543
535
525
514
506
501
500
501
501
501
500
499
496
492
491
503
516
529
536
536
533
527
519
509
501
498
497
497
496
496
496
494
492
489
489
501
513
524
527
524
520
515
507
497
491
489
491
493
494
493
492
490
487
481
480
489
501
512
518
519
515
509
500
491
484
481
481
483
483
484
484
483
479
475
473
483
497
508
512
511
508
501
492
483
477
475
473
475
476
477
478
478
475
472
472
482
496
511
520
524
524
519
510
498
485
476
468
459
448
435
419
399
376
350
325
312
300
289
274
252
229
202
171
143
121
108
105
109
118
134
157
185
216
254
299
363
436
502
552
588
612
624
631
635
637
640
640
638
633
627
620
610
601
590
583
587
594
600
600
597
590
581
570
559
551
548
546
545
545
545
545
543
541
537
536
547
560
572
577
577
574
568
559
548
540
536
534
534
535
536
537
536
534
530
528
539
553
564
569
568
563
557
550
541
535
532
532
532
532
532
533
531
528
523
519
528
539
548
554
555
552
548
540
532
527
525
526
526
525
525
524
521
516
511
510
518
529
538
542
541
539
533
526
517
511
509
510
510
510
512
513
512
509
504
501
508
518
529
534
535
533
527
520
511
504
500
499
502
503
503
504
502
499
495
493
503
514
524
529
529
526
519
511
503
496
494
493
493
494
495
496
495
492
487
484
492
505
518
524
524
521
518
513
504
497
492
491
489
488
488
489
488
486
482
480
489
502
512
517
518
516
511
505
498
493
491
492
493
494
494
494
492
489
484
483
492
504
515
521
523
520
515
508
500
493
488
486
485
484
483
481
479
473
467
464
471
481
490
495
493
490
484
476
468
461
457
456
456
456
456
455
454
451
448
446
456
469
480
485
485
483
478
470
461
454
452
452
453
454
455
455
453
450
445
443
453
464
475
480
480
476
472
464
456
451
448
448
448
448
448
447
446
442
438
436
444
455
467
473
473
471
466
460
453
448
448
450
453
455
458
460
460
460
459
460
471
486
498
507
510
510
507
502
496
494
493
496
500
504
506
509
512
512
511
511
523
538
551
558
559
558
552
547
540
535
534
535
537
539
541
544
545
543
541
542
552
565
576
581
582
581
577
572
563
557
555
555
556
558
560
562
561
559
554
551
559
569
579
584
584
583
578
571
563
557
555
555
556
558
558
559
559
558
554
552
560
570
580
584
583
580
574
567
558
551
549
547
547
548
549
551
550
549
545
543
551
561
570
574
573
571
566
558
550
542
538
536
536
536
537
538
538
536
532
531
542
556
566
571
571
567
560
551
543
536
531
528
527
528
528
528
527
526
523
520
528
540
551
558
557
555
549
542
532
526
523
522
523
523
523
521
519
516
511
506
512
520
529
533
532
529
525
519
511
504
502
503
505
507
508
510
509
506
502
501
510
519
528
532
531
529
524
518
511
505
503
502
501
501
502
503
503
500
497
495
504
516
529
536
537
536
532
525
516
508
504
502
502
503
503
503
499
494
489
486
493
504
514
521
524
524
521
516
509
502
498
496
496
496
496
496
495
493
489
488
497
510
522
531
534
532
527
521
515
509
507
506
507
506
506
506
504
502
498
496
504
515
524
529
530
529
526
522
516
512
510
511
512
513
515
515
514
512
509
508
514
525
534
538
538
536
531
525
516
509
506
506
509
510
511
513
512
510
507
505
513
525
536
541
542
540
534
528
521
515
513
513
514
515
515
514
512
510
507
504
509
519
528
534
534
532
528
523
516
509
505
504
504
504
503
503
501
499
497
496
506
518
529
536
537
536
531
526
519
513
510
510
509
509
510
510
509
505
500
497
505
516
525
529
529
527
523
517
510
504
501
500
500
500
500
499
496
492
487
483
491
500
510
514
513
510
504
498
491
486
484
485
487
490
492
494
494
494
492
491
499
511
521
527
527
526
523
516
510
504
504
504
506
508
509
510
509
507
503
498
504
514
524
529
529
527
523
518
510
504
502
500
501
502
502
503
502
499
497
494
499
510
520
527
527
526
522
517
511
504
502
500
500
499
500
501
501
501
499
499
507
517
524
524
517
506
493
476
455
434
413
391
368
342
316
290
262
234
206
180
163
149
136
125
111
102
97
96
102
119
148
188
233
286
347
415
480
532
572
601
628
652
673
686
690
690
683
672
659
644
632
621
612
606
600
593
586
578
571
564
569
578
585
589
588
584
578
571
563
556
553
552
551
552
551
551
550
548
545
543
551
561
571
576
577
574
569
563
556
549
547
546
546
546
545
543
540
535
529
524
529
539
546
550
549
547
542
534
525
519
514
512
510
508
509
509
507
504
500
497
503
513
523
528
528
525
520
515
508
502
499
498
499
499
499
500
498
496
492
491
498
508
517
522
523
520
515
509
502
496
494
492
494
494
495
495
493
492
488
485
492
503
511
516
517
514
511
505
499
494
492
491
493
494
495
495
494
491
487
483
488
498
507
512
512
510
507
503
497
493
490
490
491
491
491
495
498
501
502
502
512
525
536
543
545
543
540
534
528
523
520
519
519
519
519
518
517
514
511
508
514
525
536
542
542
540
536
529
522
517
514
513
513
513
513
513
512
510
506
503
508
518
527
531
531
528
523
515
508
501
497
494
493
492
492
491
490
487
482
479
485
495
504
508
508
504
499
492
484
478
476
475
474
474
474
473
472
470
466
463
468
478
488
493
494
492
487
480
473
468
466
466
466
467
467
468
467
465
462
460
467
478
488
495
496
495
492
486
479
474
473
473
474
475
477
478
479
478
477
476
485
498
511
518
521
522
520
518
513
511
511
513
517
521
524
527
529
529
529
530
539
553
566
574
577
578
576
572
568
564
563
564
568
570
572
575
577
576
574
573
580
593
604
611
612
611
608
603
596
591
588
587
587
587
587
587
586
583
580
577
583
594
604
609
610
609
605
599
592
587
583
583
583
583
583
582
580
577
573
570
575
585
595
600
600
598
593
588
581
575
571
569
569
568
568
569
567
563
559
557
563
573
583
589
590
588
583
577
571
564
561
560
560
560
560
560
558
556
551
548
555
565
575
581
583
581
576
570
562
556
552
550
550
550
550
551
550
547
543
540
546
556
567
572
572
570
566
560
553
547
543
543
544
545
545
545
544
541
537
533
538
547
557
563
564
563
559
552
545
539
535
535
534
535
535
534
533
531
527
524
529
539
548
554
554
552
549
542
536
529
526
524
524
525
524
525
523
520
516
513
519
529
539
544
545
543
538
531
523
517
514
513
514
515
516
517
516
514
511
509
516
528
540
547
550
550
546
541
534
528
526
525
526
527
527
527
527
525
522
519
526
537
546
552
553
551
547
539
532
527
524
523
523
523
523
524
522
519
516
514
519
530
541
547
546
545
541
534
526
519
515
513
514
515
515
515
514
512
508
505
512
521
531
537
538
536
531
526
519
514
511
509
510
511
511
512
511
509
506
502
507
518
527
534
535
532
528
521
515
510
506
505
505
506
507
507
505
503
500
497
503
513
523
530
531
529
525
520
513
508
504
503
503
504
504
504
503
500
496
494
500
511
521
527
528
527
523
517
511
504
501
501
501
501
502
502
501
499
496
492
498
509
519
525
527
526
522
515
509
504
499
499
499
500
500
501
501
499
496
494
499
511
520
526
527
526
522
516
508
502
498
497
497
498
499
501
500
498
495
493
499
511
521
529
530
529
525
519
513
507
504
504
505
505
506
506
504
502
499
497
505
516
527
534
535
534
530
525
517
512
508
508
509
510
511
511
509
507
503
499
504
515
525
531
532
530
527
521
515
508
505
503
504
505
506
506
505
503
499
496
503
513
523
528
528
526
521
513
505
497
493
492
492
493
495
496
497
495
493
491
498
510
522
529
531
529
526
520
512
505
502
501
502
504
504
505
504
502
499
496
501
512
522
528
531
528
525
519
511
505
501
499
499
500
500
500
498
495
492
489
494
504
513
519
520
518
513
506
499
493
489
488
488
488
488
489
489
489
489
490
499
512
523
528
525
519
508
496
480
464
448
430
412
392
369
344
317
287
255
222
198
180
161
138
108
83
62
47
36
29
28
36
52
79
112
151
196
254
323
388
454
514
563
597
620
632
637
634
626
616
608
603
599
596
592
590
586
583
578
574
579
588
597
603
604
601
597
592
584
578
574
573
573
573
574
575
574
572
568
566
572
582
592
600
601
599
594
588
580
573
569
567
567
568
568
568
567
564
560
558
563
572
582
587
588
587
582
575
568
560
556
554
554
554
554
555
553
551
548
544
549
559
569
575
575
574
568
562
554
547
542
541
541
540
540
540
539
536
533
530
535
545
556
562
562
560
556
548
541
533
528
526
525
525
524
524
523
520
516
513
517
527
537
543
545
543
540
534
526
519
515
513
513
514
515
515
513
511
508
505
509
519
530
537
537
536
530
524
516
509
505
503
502
502
503
503
503
501
498
495
499
510
520
526
527
526
521
515
507
500
496
496
496
497
497
498
497
496
492
490
496
506
518
524
526
524
520
513
506
499
495
493
492
492
492
492
490
487
483
480
485
496
506
513
515
513
510
503
496
489
486
485
485
485
485
484
482
479
476
472
476
486
496
502
503
501
497
490
483
475
471
470
469
468
468
469
468
465
461
456
462
472
483
489
491
489
486
479
471
463
459
458
459
460
460
460
460
457
454
451
456
467
478
485
487
486
482
476
467
461
456
455
456
457
459
460
460
458
456
455
463
476
488
497
500
501
499
495
490
485
484
486
488
492
495
499
502
503
503
503
511
525
539
549
553
554
552
548
542
538
536
537
541
543
546
550
551
550
548
548
555
568
580
589
592
592
589
584
577
570
567
566
566
567
568
568
568
566
563
561
566
578
590
598
599
597
593
587
579
571
568
567
567
568
568
569
568
566
561
558
563
573
583
590
591
589
584
578
569
561
557
555
555
556
555
556
555
552
548
543
548
559
570
577
578
577
572
566
558
550
546
544
544
544
544
543
543
541
538
535
539
551
561
568
569
568
563
557
550
542
537
536
535
535
535
534
534
531
528
525
531
542
552
559
561
559
556
548
540
532
527
526
526
526
526
527
527
525
522
518
523
534
545
551
552
550
547
540
531
524
519
519
519
519
519
519
519
514
510
506
510
521
532
539
540
538
533
526
518
510
506
506
505
507
507
508
508
506
503
499
504
516
527
536
537
536
531
525
518
510
506
504
504
504
505
505
505
503
499
496
501
513
524
532
534
532
528
523
515
507
503
502
502
503
504
504
505
502
499
496
501
512
523
530
531
528
525
519
511
503
499
498
499
499
500
502
501
500
497
494
499
511
522
530
533
532
527
520
512
506
501
500
501
502
502
503
503
500
497
495
500
512
523
531
532
530
525
517
509
501
496
495
496
496
497
497
497
496
492
490
495
507
518
526
527
527
523
516
508
500
497
496
497
497
497
499
498
496
494
492
497
508
519
527
528
527
524
517
509
501
496
495
495
496
496
497
497
495
492
489
494
506
517
525
526
524
520
513
505
497
494
492
493
494
495
496
496
495
492
489
494
507
519
528
530
528
524
517
509
502
497
497
498
499
500
500
499
498
495
492
497
508
519
526
527
526
522
515
508
500
496
495
496
497
499
499
500
498
495
492
498
510
521
529
531
530
526
518
510
502
497
497
497
498
499
500
499
498
495
492
497
510
521
530
532
531
528
521
513
506
502
501
502
502
502
504
504
503
500
497
503
515
528
537
539
536
531
524
516
508
504
503
503
504
505
506
507
505
502
499
504
515
526
535
537
536
532
524
515
508
503
502
503
504
505
507
507
504
501
497
501
512
523
530
531
529
525
518
510
502
497
496
497
497
498
499
499
497
494
492
497
510
522
529
531
530
526
519
511
504
500
499
499
499
500
502
502
500
498
495
500
513
524
533
535
534
529
523
514
506
501
500
500
501
501
502
502
500
497
495
499
512
523
531
533
532
528
521
511
504
499
497
498
499
500
501
500
498
495
493
498
511
522
531
532
531
526
519
510
502
496
494
494
494
495
495
495
493
491
488
493
504
516
524
526
524
521
514
506
497
493
492
493
493
494
495
495
494
490
487
492
505
517
525
527
526
521
514
507
499
495
493
494
495
496
496
496
495
492
490
495
508
519
527
529
527
524
516
508
499
495
494
494
495
496
497
496
495
492
490
494
505
517
524
527
525
521
514
505
497
492
491
491
492
493
494
493
492
491
489
494
506
518
526
527
527
523
515
507
499
496
495
496
497
498
499
498
496
492
490
495
507
519
528
530
529
524
518
509
501
496
496
496
497
499
501
502
500
498
496
500
512
524
533
535
533
529
522
514
505
500
499
499
499
500
500
499
497
494
492
496
507
518
526
528
527
523
517
510
502
497
495
495
495
495
495
493
491
487
484
488
499
510
519
521
519
516
511
503
496
492
493
495
497
500
501
501
500
498
497
502
514
526
535
537
537
534
527
519
512
508
507
508
508
509
510
510
508
505
501
505
516
527
535
538
537
533
527
519
511
505
504
504
505
506
507
507
506
503
500
504
515
527
535
537
536
532
526
519
515
513
515
517
518
518
516
511
503
491
479
472
471
467
457
439
415
386
355
321
286
253
223
196
167
139
108
81
59
44
35
37
52
76
104
133
164
199
236
283
344
405
461
509
546
574
594
609
615
616
614
615
623
631
635
635
630
622
612
601
591
585
583
582
581
581
581
580
578
575
572
575
586
598
606
607
604
600
592
583
575
570
567
567
567
567
567
566
564
561
558
562
574
586
594
595
593
589
582
573
564
559
558
558
559
558
558
558
555
551
547
551
562
574
581
582
580
575
569
560
551
547
545
544
545
545
546
545
543
540
537
541
553
564
572
574
572
567
559
550
541
536
534
533
534
535
536
536
532
529
525
529
540
551
559
560
559
554
546
537
527
522
521
521
521
521
522
522
520
517
514
518
530
542
550
551
550
546
538
530
521
516
515
515
515
516
516
516
513
510
507
512
523
534
541
543
542
537
530
521
512
507
506
506
506
507
508
507
505
503
500
504
515
527
535
536
535
530
523
514
506
502
500
500
502
502
502
502
499
496
493
496
507
518
526
527
525
522
515
507
498
492
491
491
491
492
492
492
489
486
482
486
497
509
516
519
516
512
505
496
487
482
480
479
478
478
479
478
476
472
468
471
482
492
501
503
502
496
489
480
471
465
463
463
464
465
465
465
463
459
456
460
471
482
490
493
491
487
481
472
463
457
455
455
456
456
458
458
456
454
451
455
466
478
487
490
488
486
480
472
464
460
459
460
462
463
465
466
466
464
463
467
480
494
505
509
510
508
504
497
491
489
490
492
495
499
502
504
504
504
503
509
522
536
547
551
552
551
546
540
534
532
532
535
538
540
542
543
543
541
539
544
558
571
581
585
585
582
576
568
561
557
556
556
558
559
559
560
559
557
554
558
571
582
590
592
591
586
579
571
562
558
556
556
557
559
560
560
558
555
552
556
568
579
587
589
587
583
575
567
558
552
550
550
550
550
551
551
549
546
543
546
558
569
578
580
578
574
567
559
551
545
544
544
543
544
544
543
541
539
535
539
550
562
571
573
571
567
560
551
542
537
535
534
536
536
537
537
535
532
528
531
543
554
563
565
563
559
551
543
534
528
527
527
529
530
531
530
528
524
521
523
534
545
553
556
552
548
541
532
523
518
516
517
518
519
520
519
517
514
512
515
526
537
545
547
545
541
533
524
515
510
508
509
510
510
511
511
509
506
503
507
518
530
539
541
539
534
526
518
510
505
504
504
504
505
505
505
503
499
495
498
509
521
530
533
531
527
520
511
503
497
496
496
496
497
499
499
497
495
492
496
508
520
530
533
532
527
521
511
502
497
496
496
496
498
498
498
496
494
491
495
508
519
529
532
531
528
521
512
504
498
497
498
498
499
500
500
499
496
494
497
510
522
532
536
534
531
524
514
506
501
500
500
501
502
503
502
500
498
495
498
511
523
532
535
534
529
522
513
504
499
497
498
499
499
499
500
499
496
495
499
512
525
534
537
536
531
524
515
506
501
499
499
500
500
501
500
499
495
492
495
508
521
531
535
534
529
522
513
504
499
498
499
500
502
504
504
502
500
497
499
512
524
534
536
535
530
523
514
505
499
498
499
501
503
503
504
502
499
497
501
513
525
534
536
534
530
523
515
506
501
500
500
500
501
502
502
500
497
494
498
510
523
532
535
535
530
524
515
506
502
500
500
501
502
502
502
500
497
493
496
508
519
529
533
532
528
521
512
505
499
498
498
499
500
501
501
499
496
494
497
508
519
528
531
529
525
518
509
502
496
495
495
496
496
497
497
495
492
488
492
504
516
525
528
527
523
517
509
500
495
494
495
496
497
498
498
496
492
489
492
503
515
524
527
526
523
515
508
500
495
493
494
494
495
496
496
494
492
489
492
504
516
525
527
526
522
515
507
500
494
493
493
495
496
496
496
494
491
487
490
501
512
521
524
521
517
510
502
494
489
488
488
488
490
491
492
491
488
486
489
502
514
523
526
526
522
516
509
501
497
496
497
497
499
500
500
497
495
491
492
504
514
523
525
524
520
515
508
500
495
494
495
497
498
499
499
497
495
492
495
506
517
526
528
527
524
518
510
502
498
497
497
499
499
499
499
497
493
489
493
504
516
525
527
527
524
518
510
502
496
495
495
495
496
496
496
495
492
489
491
503
514
523
526
525
523
516
508
500
495
493
493
495
496
496
496
495
492
489
493
504
515
524
527
526
523
517
510
502
497
496
495
495
495
496
496
494
491
488
492
502
513
523
526
526
522
516
508
500
495
493
493
493
494
494
493
492
490
487
489
501
512
522
525
524
521
515
508
501
496
496
496
495
496
496
496
495
491
488
491
502
513
521
524
523
520
513
505
497
493
491
490
491
492
493
492
490
487
482
483
492
502
509
511
509
505
498
491
483
480
479
480
481
483
484
485
483
480
479
482
494
505
514
518
517
515
510
504
498
494
493
494
495
496
497
498
496
495
493
496
507
518
526
528
527
524
518
511
503
498
497
497
498
499
500
500
498
495
491
494
504
515
524
526
524
521
515
506
500
496
495
495
495
496
496
498
498
499
499
504
516
526
532
531
525
515
502
485
467
447
429
409
388
366
341
316
289
261
230
206
191
175
154
127
104
84
70
60
54
58
73
97
130
169
212
262
326
389
444
497
546
586
616
635
644
646
641
631
619
610
604
599
595
592
589
587
582
577
572
572
583
593
602
604
601
597
590
581
574
569
568
568
568
569
569
568
566
562
559
561
571
581
589
592
591
588
581
574
566
560
558
557
558
558
558
558
556
553
550
552
562
573
580
582
580
577
571
563
555
549
547
547
546
546
546
545
543
540
536
537
548
560
569
571
571
567
560
551
543
537
534
534
534
534
534
534
532
529
524
526
536
546
554
556
555
551
545
537
529
524
523
523
524
524
525
524
521
518
515
517
527
536
544
547
546
543
536
529
521
516
515
516
517
517
517
517
515
512
508
510
519
529
537
540
539
536
530
523
515
511
509
508
509
510
509
508
506
504
500
502
512
522
531
533
531
527
521
513
506
502
500
501
502
503
504
503
500
497
495
495
505
516
524
526
524
520
513
506
499
494
492
491
491
491
491
491
488
485
481
483
493
503
510
513
512
508
503
496
487
482
480
479
479
479
479
478
476
473
470
471
481
491
499
501
499
495
488
480
472
467
464
463
463
463
463
462
459
455
451
452
461
472
479
482
480
478
472
465
457
453
451
451
451
452
452
452
451
448
444
446
457
467
475
478
477
475
470
463
455
450
449
449
451
453
454
455
454
451
449
451
463
475
484
488
488
487
482
476
470
467
467
469
472
475
478
480
480
480
479
484
497
510
520
526
527
527
524
520
515
513
515
516
519
522
525
528
528
527
527
529
542
555
566
571
571
570
566
561
555
551
551
553
555
557
559
560
559
556
554
556
566
577
587
590
589
586
581
574
566
562
561
560
561
562
563
564
563
560
556
557
567
577
585
588
585
582
576
568
560
556
555
556
556
557
557
557
555
551
548
550
560
570
579
582
580
577
571
562
555
551
548
548
548
549
549
548
546
543
539
540
550
560
569
572
571
568
563
556
549
543
541
540
540
540
540
539
536
533
529
531
540
550
559
561
560
558
552
545
538
534
532
532
532
532
532
532
530
527
524
525
536
546
555
558
556
553
547
539
532
527
525
524
525
524
524
524
521
518
514
516
527
537
545
547
547
544
539
532
525
520
519
519
519
519
519
518
515
513
510
511
521
531
540
544
543
540
536
528
522
517
515
514
513
514
514
513
511
508
505
506
516
526
534
537
536
534
528
521
515
510
508
508
510
510
510
510
509
506
503
504
514
524
533
536
536
533
527
520
514
509
508
507
507
507
507
508
506
503
499
499
508
517
525
527
526
523
518
511
505
500
500
499
500
501
502
502
500
498
495
496
506
517
526
529
528
526
521
514
508
504
503
503
504
504
506
505
504
500
496
497
506
516
525
527
527
524
519
513
507
503
502
503
504
504
505
505
503
499
496
496
506
517
526
529
529
527
522
515
510
505
504
504
506
507
507
507
504
501
497
498
508
519
527
530
529
527
523
516
511
506
505
505
505
507
508
508
505
503
499
500
510
520
529
532
531
529
524
517
511
507
505
504
505
506
505
505
504
500
497
498
507
516
524
526
525
523
519
513
508
504
504
504
505
506
508
508
505
503
499
500
510
520
528
531
530
527
523
517
511
506
505
505
504
505
510
519
520
513
503
497
502
512
521
525
525
523
520
517
516
517
517
516
515
513
512
509
503
495
487
482
491
503
513
518
519
519
517
516
516
516
515
515
514
513
512
510
503
494
486
481
490
503
514
518
519
519
519
518
518
518
517
516
515
513
512
510
504
496
486
480
489
501
511
515
516
515
515
515
514
515
515
514
513
511
510
507
501
493
484
479
487
500
511
517
518
518
517
516
516
516
517
515
515
513
512
510
504
495
486
481
490
503
513
518
519
519
519
519
518
519
519
518
516
515
514
512
505
497
487
482
491
504
514
518
519
519
519
517
516
517
516
514
512
510
508
506
500
492
483
478
488
500
512
516
517
516
515
515
515
515
515
513
513
512
511
508
504
495
486
481
491
503
513
518
519
519
518
516
516
516
516
515
514
513
512
510
503
495
487
482
490
502
513
518
519
519
518
517
516
517
516
515
514
512
511
508
503
495
486
481
489
502
512
518
518
518
518
516
515
516
516
514
513
512
511
508
502
494
485
480
489
502
514
519
520
519
519
517
516
517
517
516
515
514
513
510
504
496
487
482
491
503
515
519
520
521
521
520
520
520
520
519
518
518
516
513
507
498
489
483
492
504
516
521
521
521
520
519
518
519
518
516
515
514
512
509
502
493
484
479
488
500
512
516
516
515
513
512
509
508
506
504
503
502
502
500
495
487
479
475
485
498
510
516
518
518
518
516
515
516
517
516
516
516
515
514
508
500
492
487
497
509
519
524
524
524
524
521
520
520
519
519
518
517
516
515
510
503
495
491
499
511
521
525
526
525
523
520
518
518
518
516
516
516
515
513
508
500
492
488
497
509
520
526
529
531
532
531
529
528
525
520
515
507
497
486
468
447
421
398
384
371
357
337
312
284
255
226
195
165
135
111
93
82
78
78
82
92
111
141
187
239
296
359
425
483
529
564
587
605
620
631
638
640
638
634
627
618
608
601
606
613
619
619
616
612
607
602
600
598
596
594
592
590
587
584
578
570
561
556
565
576
586
591
590
588
586
583
580
578
577
576
575
575
573
571
566
559
549
545
553
564
574
577
577
575
573
570
567
565
564
563
562
560
559
558
553
546
539
534
543
554
564
568
568
566
562
558
552
550
550
549
548
548
549
548
545
540
535
534
543
553
561
564
564
561
556
548
541
535
533
532
533
532
532
532
528
525
521
522
531
541
549
551
550
547
541
533
526
521
519
518
518
517
516
516
513
510
506
506
516
527
537
541
540
537
533
526
519
514
512
511
511
512
512
512
511
507
503
503
512
522
530
534
533
531
526
519
513
508
507
507
507
508
507
507
504
502
498
498
507
517
525
527
527
524
518
512
504
499
498
497
497
498
499
498
496
493
489
489
499
509
517
519
518
515
509
502
496
490
488
487
488
488
488
488
486
483
480
480
489
500
508
511
509
505
499
491
483
477
475
475
475
476
475
475
473
470
465
466
475
485
493
496
495
492
487
480
473
469
467
467
467
467
467
466
465
462
459
459
469
480
488
492
492
489
483
476
469
464
462
461
461
462
462
461
460
457
455
455
465
477
486
491
490
488
484
478
473
468
468
468
471
473
475
476
476
475
474
477
488
500
511
515
517
517
515
510
504
502
503
505
508
512
515
517
518
518
517
520
532
545
555
560
561
560
557
552
547
544
545
547
550
553
556
558
558
557
556
558
568
579
589
592
593
591
588
582
576
572
572
572
574
575
575
575
573
570
567
568
578
589
598
602
601
600
595
589
581
577
575
574
574
575
575
574
572
568
565
564
572
582
589
591
589
586
579
573
566
560
559
559
560
560
561
560
559
556
553
553
563
572
579
582
580
576
571
564
557
551
549
548
548
548
548
548
545
542
539
539
548
558
566
569
569
567
562
556
549
544
543
543
544
544
543
544
542
539
535
536
544
553
561
567
568
568
565
560
556
551
550
548
550
550
551
552
551
550
547
547
554
562
569
572
569
566
560
553
546
540
539
538
538
537
537
537
536
534
530
529
535
543
551
554
555
556
554
551
546
541
539
537
536
535
534
532
529
526
523
522
530
540
547
550
548
547
542
536
529
526
524
524
525
526
525
525
523
521
519
521
530
541
549
553
553
551
548
542
536
532
530
529
530
530
529
529
527
525
523
523
531
540
547
549
547
545
540
533
527
521
519
519
520
521
523
524
524
521
519
518
524
531
536
536
533
530
526
519
514
511
509
509
509
510
511
512
511
511
510
511
520
531
540
543
543
542
537
532
526
522
520
521
523
523
524
524
519
514
508
503
508
515
521
523
523
521
518
513
509
505
503
502
501
500
500
499
497
495
490
489
496
504
510
513
511
509
504
498
492
487
486
486
485
485
485
485
484
483
481
481
489
499
508
511
511
510
505
499
492
487
484
483
484
484
483
483
481
478
473
473
480
489
497
500
500
498
495
491
485
480
476
474
473
473
472
471
469
467
465
465
475
486
496
502
503
503
500
496
491
486
483
482
480
479
478
477
475
471
467
466
474
484
492
496
496
495
491
485
478
472
468
467
467
468
468
469
468
465
462
462
471
482
492
499
502
503
502
497
491
487
483
482
481
481
481
482
480
479
476
474
482
492
500
505
505
504
500
495
489
484
480
479
478
477
476
477
475
473
472
472
482
493
504
510
512
514
512
509
504
500
497
494
491
490
489
489
487
483
480
479
482
487
491
492
494
496
499
500
502
504
506
508
510
513
515
518
518
515
512
510
512
514
516
518
517
517
516
515
516
516
516
515
514
514
513
513
512
510
507
505
508
512
515
517
517
517
516
515
515
513
512
510
506
504
501
499
497
494
491
491
495
501
507
511
512
513
513
514
514
513
513
512
511
510
508
507
504
499
494
490
490
491
493
496
497
499
503
505
507
508
510
510
511
512
511
511
508
504
501
499
502
507
510
512
512
512
512
512
512
513
514
513
511
512
512
511
508
504
500
499
502
506
510
511
511
510
510
511
510
510
509
509
509
510
509
510
508
505
501
500
504
510
515
519
520
522
524
524
524
524
522
520
519
521
522
523
521
519
516
514
517
520
523
525
524
521
519
517
517
517
517
517
516
516
516
517
515
511
507
504
506
509
511
511
511
512
515
518
520
521
521
518
516
516
516
518
518
518
516
514
516
519
522
523
523
524
526
527
527
528
528
528
527
525
524
523
520
518
514
512
515
519
522
523
522
521
521
522
524
525
526
525
524
522
519
518
515
511
505
503
506
511
513
515
514
514
514
514
514
515
515
514
514
514
515
516
515
513
511
509
513
518
523
525
526
526
525
525
526
527
528
529
529
529
528
527
525
521
519
516
518
522
526
528
529
529
529
530
530
531
533
534
534
534
535
535
533
530
527
524
527
531
536
537
537
536
535
533
531
529
528
527
528
529
529
530
527
522
516
509
507
504
499
491
479
462
442
419
394
366
338
311
284
255
226
198
169
139
107
77
57
44
40
40
45
57
79
110
146
189
238
295
366
432
491
539
574
597
614
626
640
649
653
650
645
638
630
624
618
613
608
603
600
596
592
589
583
576
570
565
565
568
570
572
571
571
570
569
568
567
566
564
563
562
561
560
559
556
553
551
554
557
560
560
559
556
554
551
549
548
547
548
548
548
548
548
545
542
536
533
537
542
547
548
547
547
546
545
545
544
544
543
543
543
542
541
539
535
531
529
531
535
538
539
540
539
537
535
533
532
532
531
532
532
531
530
528
526
523
521
524
527
531
532
530
529
527
526
525
525
525
524
524
524
522
522
521
518
515
513
518
521
524
524
522
520
517
513
511
508
507
504
503
502
501
500
499
497
494
492
496
501
505
508
510
512
513
515
517
519
519
517
515
514
513
513
511
508
505
502
506
513
519
524
526
527
525
521
516
511
508
504
502
500
498
496
492
489
485
483
488
494
500
503
503
502
499
496
491
486
484
482
480
480
479
478
476
473
470
469
474
481
487
490
489
489
488
487
484
482
482
482
482
482
480
480
476
472
469
467
471
476
480
481
481
480
479
476
472
470
471
473
474
475
476
477
476
472
469
469
476
484
491
496
496
497
495
491
487
484
483
482
481
480
480
480
477
475
472
472
479
486
493
496
496
496
493
490
487
485
484
484
485
486
486
486
484
483
481
482
490
499
508
513
514
514
513
510
508
507
508
510
512
515
517
519
520
519
519
518
526
533
541
545
547
547
547
545
543
542
543
545
547
549
550
552
551
550
547
547
554
562
569
573
576
578
580
580
578
577
577
577
579
582
583
585
585
584
583
582
588
595
601
604
604
603
600
595
590
587
585
584
583
582
583
583
581
579
576
575
582
588
594
596
595
593
589
583
577
573
572
570
570
571
572
571
569
566
563
561
566
572
577
578
576
574
569
564
558
551
549
547
546
545
547
548
548
547
545
546
552
559
565
569
569
567
563
559
553
550
549
548
547
545
542
538
533
530
530
533
544
555
563
569
573
574
574
572
568
564
561
557
554
551
550
550
549
547
543
541
545
551
558
560
560
559
557
554
551
548
547
546
543
542
538
536
533
529
527
526
531
539
545
547
546
544
540
536
530
526
525
524
525
526
526
526
524
521
519
518
523
530
536
539
537
535
530
525
518
512
510
507
506
505
504
504
503
500
500
502
512
522
531
535
532
529
522
513
505
502
502
504
505
508
510
512
513
513
512
512
520
528
535
536
533
527
520
511
504
496
494
495
500
504
507
509
508
506
505
506
515
526
535
540
540
538
535
528
523
519
518
516
516
515
513
513
511
508
505
505
513
520
527
530
530
528
524
519
515
512
511
511
511
509
506
503
499
495
490
487
493
501
508
511
511
511
510
508
507
507
508
510
511
512
512
512
510
507
503
499
504
511
516
518
515
511
503
495
487
483
482
484
487
491
494
497
497
495
492
489
494
500
505
507
507
505
503
499
496
494
494
497
502
505
508
510
511
510
507
504
507
510
512
512
509
508
506
503
502
501
502
502
502
502
503
503
502
501
500
499
505
512
518
523
524
525
525
526
526
527
528
529
531
531
530
529
526
522
519
516
519
521
520
518
514
511
508
506
504
503
501
500
502
503
503
504
504
506
508
511
517
523
528
530
529
528
524
520
515
511
508
505
502
499
497
496
497
497
495
495
498
503
507
509
509
510
509
508
506
505
505
504
504
503
501
500
497
495
491
488
491
495
497
499
499
499
499
499
499
500
501
502
504
505
507
508
510
511
509
506
509
512
514
515
516
517
517
519
519
522
524
526
527
529
532
534
535
535
535
536
540
545
549
551
551
552
553
554
555
556
558
559
560
560
561
562
560
559
558
557
562
567
571
573
572
570
567
565
564
563
563
563
563
561
559
555
547
540
532
527
527
530
534
536
538
539
538
539
539
541
541
540
538
535
533
531
527
521
515
511
511
511
514
517
518
518
518
517
518
518
518
516
515
514
512
512
509
504
501
499
502
504
508
510
510
511
511
512
512
512
512
510
508
507
505
503
501
497
494
491
494
496
499
500
500
498
496
496
495
493
492
491
489
487
485
482
477
471
466
462
462
465
468
470
470
471
471
471
472
473
477
480
484
486
485
485
482
479
474
470
471
472
472
472
471
470
470
471
472
473
476
477
477
476
476
476
473
470
465
463
467
473
479
482
485
487
487
489
491
491
492
492
491
490
490
491
490
487
482
480
484
489
496
499
499
498
495
492
489
488
488
487
486
485
484
483
481
478
474
472
476
482
488
491
491
491
488
486
482
480
479
480
481
483
483
482
479
476
475
475
483
492
500
506
508
508
508
506
504
502
502
503
504
505
507
508
507
505
504
502
508
516
526
531
531
531
529
524
519
515
512
510
510
508
508
507
506
505
504
503
510
518
524
526
524
521
516
511
505
502
500
500
502
504
508
512
515
515
512
510
513
515
516
511
500
487
471
449
425
400
376
349
323
297
271
244
215
187
159
130
108
91
78
69
66
67
74
89
114
146
185
231
283
343
410
470
522
563
594
616
643
664
680
687
686
680
671
660
647
634
625
618
613
609
604
600
595
592
589
585
589
591
591
590
586
583
580
576
573
572
574
575
578
579
580
582
581
578
575
574
580
588
592
592
587
581
573
566
561
558
557
557
557
556
554
555
557
560
562
564
572
580
587
588
585
581
575
567
556
549
546
544
545
546
546
547
546
545
542
539
545
553
559
560
558
555
551
545
540
536
532
531
530
528
524
518
508
501
496
494
500
509
519
523
524
526
526
526
525
524
526
529
533
536
537
538
534
528
522
517
519
524
527
526
523
519
511
504
497
492
491
490
491
493
496
500
504
504
502
501
507
515
524
528
528
527
524
520
516
514
514
515
518
518
518
519
518
516
515
515
520
529
538
542
542
540
537
533
528
524
522
519
518
517
514
512
508
504
500
498
501
506
513
516
518
519
519
519
519
519
519
519
519
518
515
511
504
496
489
484
484
486
486
486
484
484
483
484
486
487
488
492
497
500
500
498
496
492
487
485
490
498
506
511
512
512
510
505
499
495
493
493
493
492
491
489
485
480
476
473
479
487
494
497
498
498
496
491
486
480
477
475
475
475
476
476
475
472
469
467
474
482
490
494
493
489
483
477
469
462
459
457
456
456
457
459
459
459
457
458
469
483
496
504
506
506
502
495
489
483
479
476
474
472
472
472
472
471
472
472
481
493
505
513
516
518
518
516
515
513
513
513
515
515
516
518
517
517
516
516
525
535
543
548
549
549
547
545
542
541
543
544
546
548
549
551
551
550
547
547
555
563
571
575
575
575
572
568
563
559
557
556
556
557
556
556
555
551
546
542
546
552
557
558
555
552
549
546
542
539
537
537
539
540
539
537
531
525
520
518
528
541
554
562
564
564
562
557
550
543
538
534
532
531
531
531
531
530
530
531
540
549
557
561
561
560
556
552
547
543
539
537
535
534
532
531
527
523
520
518
523
530
537
540
539
537
534
530
525
520
518
517
517
518
517
516
513
511
507
504
510
516
523
527
527
526
522
517
511
508
508
508
508
509
509
511
511
510
508
507
515
523
530
534
533
531
527
523
518
514
513
513
513
513
513
514
513
511
509
508
515
524
531
536
536
535
531
525
519
514
511
509
508
509
509
510
509
506
503
502
509
518
525
529
528
527
523
518
513
510
508
509
509
509
508
508
506
504
503
504
512
523
531
536
536
534
530
525
521
518
516
515
515
515
515
514
512
509
505
504
511
519
526
529
529
527
522
517
511
508
506
505
506
508
509
511
511
511
509
508
515
523
531
535
534
532
529
524
519
513
511
510
508
509
509
510
511
510
507
504
510
516
522
523
521
519
515
509
504
501
500
501
504
506
508
512
514
517
518
520
529
539
546
549
548
547
543
537
532
528
526
525
523
522
522
523
522
521
519
519
527
536
543
546
546
545
543
539
535
531
531
531
532
533
532
533
531
527
522
521
527
536
544
549
550
549
546
542
537
534
534
532
531
531
529
529
527
524
521
519
526
534
540
542
542
541
538
533
527
523
521
521
521
522
522
523
522
520
518
516
523
530
535
537
537
536
531
524
518
513
511
510
509
509
508
509
507
504
501
498
504
512
518
520
519
517
513
509
506
504
503
504
504
504
504
504
502
500
498
496
503
510
516
520
519
516
512
507
501
497
495
495
496
496
496
497
496
493
491
490
497
505
512
516
516
516
513
510
505
501
499
498
498
499
500
500
499
497
493
491
496
503
510
514
513
512
508
502
495
490
489
488
490
492
494
497
498
496
494
493
500
508
514
518
518
515
510
504
498
492
491
490
490
491
492
493
493
493
492
492
500
508
516
521
521
519
514
508
503
499
499
498
498
499
498
498
497
494
490
489
496
506
515
520
520
519
515
509
504
501
502
503
504
507
508
510
508
506
503
501
508
516
523
526
527
526
523
519
513
511
510
509
508
505
503
501
499
498
497
497
505
513
521
524
523
521
518
513
507
503
502
502
502
501
500
501
501
499
498
497
505
514
522
525
525
525
522
518
515
512
512
512
513
514
515
515
513
509
504
500
507
514
519
521
522
520
516
511
504
500
499
497
497
497
497
497
496
493
489
487
492
499
507
511
511
509
505
500
495
491
492
494
495
496
494
494
492
492
490
491
499
512
522
528
531
529
524
516
508
504
501
500
499
499
500
501
499
496
492
488
494
501
507
510
510
509
507
504
499
495
493
492
492
493
494
495
492
489
485
480
484
492
498
503
505
506
505
504
500
497
498
499
501
503
503
503
501
498
493
489
492
498
505
508
507
506
504
501
496
491
492
493
496
499
501
503
505
506
505
504
511
519
526
529
528
527
521
516
509
504
502
502
503
504
504
502
498
492
486
479
479
479
476
464
446
423
400
372
343
314
287
261
236
212
188
162
136
115
94
80
82
94
110
131
159
194
231
271
318
371
434
492
540
577
603
623
636
644
648
650
656
664
669
667
659
650
639
627
614
602
592
586
581
577
572
569
564
559
555
552
558
566
572
575
575
575
573
569
565
560
557
555
554
551
547
545
540
536
532
529
535
541
546
547
550
551
549
545
540
537
536
537
538
540
540
541
540
539
537
536
542
549
556
560
561
559
553
546
537
529
526
523
520
519
519
521
522
521
519
518
521
525
528
531
529
528
528
529
532
534
536
536
535
534
534
534
534
532
528
526
528
531
533
532
530
529
528
527
526
526
528
528
527
526
524
523
521
518
515
511
513
516
519
520
520
519
517
514
512
512
512
509
508
505
504
505
502
500
499
497
501
507
511
512
512
510
507
505
503
502
503
502
497
494
492
493
491
487
484
484
492
501
511
516
518
518
517
516
516
515
516
515
515
514
514
513
510
506
502
498
499
503
506
508
508
508
506
505
504
503
504
504
504
503
502
500
497
494
490
487
489
492
494
493
489
487
486
485
484
483
483
483
483
482
482
482
480
478
475
472
475
481
492
498
498
498
496
492
487
483
481
480
481
483
483
484
483
480
477
475
480
487
492
492
489
487
482
477
473
472
471
469
470
471
472
472
472
471
469
467
469
471
472
473
471
470
469
470
470
469
468
466
462
461
460
461
460
459
457
457
461
465
468
471
472
474
477
480
483
486
488
491
492
496
498
501
503
503
502
500
503
506
508
509
510
512
514
519
525
529
533
536
538
541
543
546
546
545
545
543
545
546
546
546
545
544
543
544
547
548
549
549
549
550
550
551
551
548
545
544
547
552
557
560
562
564
565
567
569
571
573
573
572
572
572
574
574
572
569
566
567
567
566
566
564
565
566
568
570
573
575
575
575
575
575
575
573
572
568
565
567
570
573
574
575
575
576
577
579
580
581
579
577
577
577
577
575
572
569
567
568
569
569
568
566
563
562
561
561
562
562
562
561
559
557
556
553
551
547
543
543
545
547
549
549
550
550
552
555
557
559
559
558
556
552
549
544
541
538
536
537
540
542
543
543
543
542
542
543
544
545
545
545
544
543
542
538
534
530
526
526
528
530
530
529
528
527
527
528
530
530
530
528
527
526
525
521
518
514
510
511
515
519
523
525
526
524
524
524
525
526
525
525
524
523
522
521
517
512
509
509
510
511
511
510
509
508
508
508
511
512
512
512
511
511
512
512
510
508
505
505
506
507
507
506
506
506
509
512
515
519
521
524
525
527
528
528
525
521
517
517
519
521
521
521
520
521
525
529
533
536
536
537
537
537
537
534
531
527
524
526
528
531
532
532
533
532
531
530
531
531
529
529
530
530
528
526
523
519
517
519
519
521
521
519
519
518
519
520
521
521
517
515
516
518
520
522
524
525
524
527
529
530
528
523
521
520
522
525
529
531
531
530
529
528
527
525
520
516
512
511
512
513
514
513
512
512
514
517
521
524
525
527
530
532
534
532
529
525
520
519
519
520
520
520
521
523
525
528
529
529
528
527
525
524
523
519
515
512
510
511
512
513
514
515
515
515
516
519
521
521
520
519
517
515
513
508
501
496
491
491
492
494
495
496
496
498
499
501
504
504
503
502
501
500
498
495
492
487
483
482
482
482
483
482
482
484
487
492
497
500
499
500
501
501
501
499
495
491
485
484
484
485
486
487
490
493
497
502
506
510
512
515
518
521
523
523
521
518
513
512
512
513
514
513
515
517
520
524
527
529
531
532
533
534
535
536
533
529
524
523
522
523
522
520
521
522
524
526
527
527
527
527
526
526
525
523
519
516
513
515
516
518
517
516
518
519
523
526
529
530
530
529
527
526
526
524
521
519
515
516
518
519
520
520
520
521
522
525
527
526
523
520
518
514
511
509
507
504
502
503
505
508
511
511
512
512
514
514
516
516
516
516
515
514
513
510
506
502
499
500
503
506
508
510
512
512
514
515
516
516
515
512
510
508
506
502
497
492
488
488
490
493
496
497
499
501
505
510
514
515
515
515
513
512
511
508
504
500
496
496
497
499
500
501
502
504
508
512
516
519
517
515
512
509
507
503
497
491
485
484
485
487
487
487
488
488
492
496
502
506
509
511
512
513
515
515
510
504
498
495
494
494
495
495
496
497
500
503
505
504
503
501
499
497
496
492
489
485
479
475
473
473
473
471
469
468
470
471
472
472
471
470
470
470
472
473
472
469
467
471
475
478
480
481
484
487
490
494
498
501
501
501
500
499
499
499
498
495
492
494
497
501
505
508
511
512
515
519
521
522
520
519
518
519
520
517
514
510
506
506
507
508
508
506
506
508
513
517
520
523
522
520
515
512
508
503
499
496
492
495
499
503
504
503
500
497
494
488
481
470
455
439
417
394
370
342
312
281
252
228
205
184
161
137
118
103
95
95
101
110
124
147
181
220
265
312
364
421
469
511
545
569
584
595
607
620
632
641
646
645
641
636
631
624
619
612
606
597
588
583
578
573
566
560
556
554
554
556
559
560
558
553
549
544
542
536
531
526
519
515
513
512
512
511
512
514
520
527
532
536
535
532
530
527
525
522
520
515
509
507
510
513
515
515
515
516
520
524
528
529
527
524
523
521
519
515
510
503
496
493
492
494
496
497
499
503
509
515
522
527
527
524
521
519
517
511
502
496
491
492
495
499
503
506
511
517
524
531
536
539
537
537
537
536
534
530
524
517
508
503
501
501
502
501
504
507
514
522
529
531
531
530
531
530
527
520
512
505
497
495
495
496
498
498
498
499
502
505
507
505
501
496
491
486
481
476
470
463
459
460
463
469
476
483
488
495
503
512
519
524
525
527
527
526
527
523
516
508
499
495
492
491
489
487
486
487
492
499
506
508
506
503
498
495
496
501
504
506
506
504
499
494
490
487
486
487
492
498
502
503
501
499
497
491
485
478
472
470
469
468
467
465
464
464
466
469
473
478
481
483
484
484
484
483
484
484
483
480
476
470
462
455
450
447
448
452
458
465
472
475
475
474
471
468
466
464
462
461
458
453
447
441
439
440
445
453
465
477
487
492
494
492
492
491
488
487
486
483
481
477
471
467
465
465
469
474
481
491
498
502
504
505
505
504
504
504
505
506
504
500
495
492
492
493
497
502
511
520
529
534
537
541
544
547
550
551
553
555
553
548
541
532
526
522
524
531
544
557
568
576
579
579
580
580
579
577
576
577
578
575
568
561
556
552
553
556
563
572
579
584
587
588
589
589
590
588
587
587
583
577
570
564
560
558
559
563
571
581
589
592
590
587
584
583
582
581
580
578
575
570
562
556
551
550
551
552
556
561
566
569
569
568
565
562
559
553
550
547
543
535
528
523
518
515
516
519
526
535
543
546
548
550
549
548
547
543
543
542
540
535
528
523
518
516
519
523
530
537
545
547
545
545
545
547
548
549
550
551
550
543
534
527
523
521
523
527
535
547
556
561
561
560
558
555
552
548
545
543
540
533
524
518
514
513
517
523
532
543
553
558
557
555
551
548
546
545
545
545
543
535
525
515
511
512
518
525
535
548
560
567
569
569
568
563
560
555
551
548
545
536
526
518
513
516
522
531
544
560
571
575
573
572
568
564
562
560
559
558
555
547
538
530
526
525
528
535
546
557
567
571
571
569
566
563
561
558
556
553
549
540
528
520
515
513
514
519
527
537
545
547
544
540
535
529
523
515
508
502
496
487
480
472
471
475
481
487
497
509
520
526
529
531
531
529
529
527
524
521
516
507
497
488
482
481
484
489
501
513
523
526
525
524
523
521
518
517
515
512
505
494
483
475
467
460
460
470
489
509
527
540
547
551
551
549
548
543
540
539
536
526
511
497
488
485
488
496
508
520
531
534
534
534
535
536
537
539
540
543
542
533
519
508
502
502
507
517
532
549
564
571
570
569
567
565
564
562
560
558
555
543
526
512
503
500
504
511
525
541
555
560
559
555
551
547
545
542
539
536
534
522
506
491
482
480
485
493
505
521
534
538
535
530
524
519
515
508
502
497
493
483
470
461
458
461
466
475
492
515
539
553
559
560
560
558
556
552
549
547
544
529
510
494
484
483
488
498
515
532
548
554
551
547
542
538
535
531
527
524
520
508
492
480
472
472
478
489
508
528
547
554
555
553
550
546
543
539
534
529
523
508
489
473
463
460
465
477
496
517
535
543
543
541
536
529
522
514
510
506
502
488
470
453
443
440
444
453
471
491
510
519
520
519
518
517
518
518
517
515
511
498
480
464
453
450
453
462
480
500
517
524
523
519
516
513
511
508
505
503
499
486
470
456
448
448
453
464
480
499
516
524
524
520
515
512
509
507
504
502
499
484
466
451
442
441
447
459
478
499
518
527
527
525
522
518
516
515
514
513
511
499
483
469
462
462
467
477
493
510
526
534
535
534
531
530
529
527
526
524
519
506
488
474
465
466
473
484
502
520
537
543
541
538
534
531
528
524
517
511
502
488
473
463
457
462
475
497
527
557
580
589
583
571
560
548
535
519
503
484
461
425
382
338
302
271
245
224
211
202
189
164
135
108
82
65
55
51
56
72
96
120
147
183
231
295
359
420
478
528
568
595
608
619
624
626
625
622
615
607
598
581
563
547
537
536
541
551
567
584
600
606
606
604
601
597
593
588
584
582
577
564
546
532
524
524
530
539
554
572
588
595
595
594
591
586
582
575
572
570
568
558
545
533
526
525
529
536
549
564
576
580
577
574
568
561
556
550
545
542
540
531
519
511
508
512
519
528
544
560
573
578
576
574
569
565
561
557
553
551
548
536
521
508
500
499
505
515
531
550
566
573
570
564
558
552
549
546
544
543
541
530
517
504
496
495
499
507
522
540
555
562
562
561
558
554
551
547
544
541
537
526
512
501
494
493
495
499
510
526
540
547
547
544
540
536
532
529
526
524
521
511
497
485
478
477
481
489
504
519
532
537
537
535
534
533
533
532
531
529
529
520
507
495
486
484
487
494
509
527
543
549
547
544
540
537
535
531
528
525
520
509
495
482
474
471
474
482
496
512
525
531
531
529
526
522
519
516
512
509
504
492
477
465
457
457
463
472
486
502
515
520
519
516
511
506
502
496
491
487
482
471
459
446
438
438
443
454
468
482
496
502
501
498
495
491
488
486
483
480
476
460
436
419
411
414
424
439
457
484
512
525
525
521
518
517
515
504
498
506
513
509
496
473
455
461
480
493
510
521
519
507
495
494
496
512
531
529
539
558
567
566
534
480
426
412
416
443
477
509
526
538
539
521
497
486
484
489
496
509
505
481
463
447
444
433
416
417
416
447
467
456
447
451
462
489
517
541
553
555
554
524
494
470
452
459
468
482
505
532
565
594
612
634
653
650
634
618
621
616
619
613
609
604
604
601
611
628
651
672
687
696
693
688
677
670
655
632
619
608
594
576
560
546
537
542
547
550
559
574
586
588
584
580
570
563
562
578
587
597
587
564
535
514
494
490
497
499
505
513
515
518
523
535
531
508
488
473
476
494
516
514
491
465
444
439
448
461
471
477
488
500
506
509
512
516
518
519
524
518
510
506
492
480
478
486
492
503
516
527
531
534
541
543
543
542
540
532
528
523
522
511
486
460
448
455
469
487
503
515
527
530
528
523
517
514
511
504
494
496
507
508
511
505
503
483
465
460
471
490
489
495
493
488
493
495
494
497
498
506
496
472
449
441
448
466
482
499
510
519
530
544
536
550
563
566
578
571
560
551
541
527
502
489
472
476
480
488
486
487
501
521
526
522
518
518
522
513
510
517
518
515
503
500
513
510
499
508
521
539
549
546
547
545
541
540
549
559
555
547
538
521
487
469
468
483
501
508
515
534
558
573
572
566
562
557
538
512
502
497
507
526
527
509
501
495
502
505
510
519
537
563
564
551
527
497
471
465
471
485
498
495
481
471
462
461
480
489
504
512
527
543
578
602
622
645
660
658
640
613
590
566
551
556
550
528
508
510
492
476
456
448
440
454
471
479
472
461
454
455
472
475
471
487
502
494
494
504
527
540
548
543
521
512
517
521
536
528
521
524
528
522
513
490
468
455
448
449
453
451
461
471
469
475
483
478
473
478
484
490
491
471
427
419
445
457
465
476
501
527
550
558
553
551
539
538
534
525
524
527
519
510
494
467
469
481
481
495
515
539
546
555
561
568
573
572
559
537
521
504
503
505
496
476
462
458
455
456
470
484
495
499
511
509
502
500
504
499
500
493
483
476
473
473
476
485
488
487
497
503
505
505
504
509
515
515
508
508
520
525
526
516
504
493
485
484
488
499
517
532
543
548
545
544
542
539
539
540
546
551
552
550
536
518
504
495
491
486
489
499
508
512
512
514
518
522
525
524
526
529
527
520
511
506
504
498
502
508
514
521
528
531
530
527
525
523
523
520
518
516
512
506
498
494
491
492
494
498
505
513
519
523
524
526
522
520
520
520
521
524
527
528
523
511
502
497
495
503
518
533
543
548
549
547
543
540
540
537
535
529
521
512
505
502
504
504
508
516
526
533
530
535
535
534
535
529
525
524
527
524
519
527
536
536
525
513
504
496
492
490
494
493
482
470
464
472
488
494
493
488
485
480
475
467
462
456
452
452
456
472
489
497
502
504
497
494
488
478
466
455
441
420
393
368
346
325
308
296
287
278
265
249
230
215
199
184
175
177
182
196
216
239
267
297
330
369
420
472
515
553
582
598
608
617
626
632
632
623
616
606
589
579
573
568
562
553
551
552
561
572
584
597
601
601
594
588
583
576
570
568
564
551
539
532
529
529
532
537
544
543
546
548
546
542
532
531
531
529
523
515
515
515
513
512
514
516
522
529
540
549
559
566
565
564
561
556
553
554
553
552
551
545
536
528
523
521
524
530
540
549
556
558
558
552
549
547
546
543
540
537
534
528
519
512
507
508
516
526
533
545
555
561
560
556
552
550
548
545
543
540
536
528
519
513
512
518
522
521
521
525
528
531
533
537
537
531
514
502
502
506
506
502
494
488
486
484
491
497
505
515
523
528
528
529
529
528
530
528
525
522
520
520
518
512
504
503
504
508
518
524
527
527
528
531
531
529
528
528
528
526
529
526
517
507
498
494
491
493
500
507
512
520
525
531
531
525
515
510
509
508
501
494
483
478
476
483
491
487
487
488
493
496
497
499
500
499
497
497
499
495
486
476
467
458
451
448
450
455
464
475
483
488
491
492
491
488
486
484
481
481
479
472
466
455
454
456
458
463
470
476
481
485
484
483
480
478
475
471
467
465
461
454
445
437
432
431
435
441
449
457
464
469
470
468
468
467
467
467
469
467
467
466
459
453
449
449
455
461
473
480
481
481
480
481
484
482
482
483
484
485
484
480
474
469
468
471
478
488
502
512
524
531
533
536
534
533
534
532
529
529
531
525
518
511
507
505
509
516
525
531
539
547
555
558
563
561
563
562
560
558
557
552
544
537
534
534
535
537
543
552
561
567
571
567
561
560
558
558
557
555
550
544
535
527
519
512
512
518
524
531
538
544
549
550
549
550
552
556
556
556
552
548
543
537
534
535
539
540
545
555
561
565
563
562
562
564
567
571
575
579
581
577
571
567
566
567
566
567
575
583
591
595
595
596
595
595
595
595
594
593
591
587
580
573
568
566
568
571
578
586
595
598
597
596
593
591
589
586
584
584
583
577
569
561
556
554
557
560
568
577
588
598
604
609
614
615
613
607
601
595
588
579
567
558
551
548
550
555
563
571
579
584
585
585
583
581
580
579
577
577
575
570
561
555
550
548
549
551
555
560
564
567
563
560
560
559
560
558
558
558
558
554
547
540
535
535
537
541
547
556
563
565
561
556
551
546
543
538
532
528
524
516
506
498
492
489
489
492
497
504
511
514
513
510
505
499
496
489
483
480
476
468
458
450
446
445
448
452
460
469
480
490
496
503
504
502
502
504
505
506
505
501
495
489
487
488
491
495
502
512
520
524
521
516
511
505
503
502
502
502
502
497
489
483
480
479
483
487
495
501
504
505
502
498
495
493
492
493
493
493
492
487
478
470
464
462
463
469
479
491
500
505
508
506
504
503
502
503
504
504
502
496
487
481
477
474
471
468
471
482
495
506
511
514
517
517
516
512
511
509
507
503
495
487
481
480
482
487
494
502
508
510
508
505
502
497
496
496
496
497
496
490
480
471
466
467
469
476
486
498
510
516
515
514
514
512
511
512
511
511
510
504
496
488
482
480
481
486
494
505
514
518
517
516
515
515
513
509
504
502
499
495
487
481
478
480
483
489
496
506
515
521
524
526
524
521
519
515
512
511
509
504
496
489
487
490
495
502
512
524
536
544
544
541
538
535
529
523
520
519
515
510
502
495
490
488
490
494
501
508
515
517
514
509
503
499
496
493
490
489
487
480
471
463
460
456
455
455
460
469
477
483
486
487
487
484
483
480
479
480
479
473
464
456
451
451
455
462
473
485
495
503
504
501
495
486
478
466
453
439
423
403
378
351
324
303
285
272
260
250
240
227
209
186
166
152
142
137
141
151
171
193
219
251
289
336
394
460
525
581
625
651
663
669
672
675
679
682
684
684
681
670
653
636
621
611
608
606
611
617
622
622
621
618
615
611
607
602
596
591
585
576
567
560
555
559
567
574
584
596
609
618
621
622
620
620
620
618
614
611
606
600
592
584
577
575
577
581
589
600
610
616
615
615
615
611
608
604
601
597
593
587
576
567
562
561
565
568
575
583
591
596
595
592
589
586
585
583
581
575
569
561
550
539
531
528
529
532
540
549
560
566
566
568
568
567
565
561
557
553
548
538
525
515
508
503
500
501
507
518
527
533
533
531
527
524
521
519
516
513
510
501
488
477
471
468
470
475
483
494
503
505
500
492
483
476
472
468
466
465
464
458
449
440
433
430
430
433
439
444
450
452
450
445
441
438
436
436
436
437
436
431
420
414
410
411
415
422
431
442
451
457
456
452
447
440
438
439
442
445
447
444
437
432
430
432
436
440
447
456
464
469
470
472
474
475
475
474
472
469
466
459
449
438
431
428
431
437
447
461
474
483
486
487
485
483
481
479
476
474
472
464
455
447
442
441
443
447
454
461
466
467
466
464
463
461
458
454
452
451
450
445
437
430
426
426
430
435
445
456
466
470
468
467
466
463
463
464
466
467
467
464
458
451
449
451
456
461
468
477
484
487
487
486
484
481
480
479
478
479
479
474
467
460
458
459
464
471
481
492
503
509
511
513
512
511
511
510
512
515
516
515
511
508
508
508
511
515
523
530
537
541
540
540
542
543
542
541
542
543
542
537
528
522
517
516
518
522
530
540
548
550
547
543
541
540
540
543
550
555
557
555
550
544
540
539
539
541
547
553
558
561
562
566
570
574
579
583
583
583
582
578
571
564
558
555
556
561
571
582
592
600
602
603
601
600
600
597
595
594
591
582
569
561
556
557
561
567
575
585
593
599
600
600
600
597
596
592
590
587
583
575
566
558
556
556
560
563
571
578
586
589
583
577
573
569
568
568
568
564
558
549
539
531
527
528
528
531
536
543
548
551
552
548
544
540
537
534
528
522
518
511
502
496
491
489
490
489
492
496
504
508
509
507
504
501
499
498
495
492
487
480
471
461
456
455
458
462
472
481
488
492
494
494
492
487
481
472
465
464
466
467
463
459
455
455
459
464
472
480
487
492
494
494
495
495
496
496
496
496
496
494
487
481
478
476
478
483
489
498
504
508
509
510
511
511
512
512
512
514
515
515
512
509
506
504
504
508
516
526
533
538
539
540
539
539
539
538
536
535
531
526
519
515
513
513
516
519
526
532
537
541
541
540
539
539
541
543
546
551
552
551
545
541
540
541
544
547
553
559
563
566
566
566
566
565
566
566
566
565
564
561
554
549
544
541
540
541
544
550
556
561
562
563
564
564
566
564
564
563
563
560
555
551
547
545
545
545
550
556
561
560
555
549
545
544
547
549
551
551
551
547
540
535
534
533
533
531
533
537
540
545
547
545
545
546
548
549
550
549
546
540
532
524
518
515
515
516
519
523
526
527
525
523
519
518
517
515
514
514
512
510
503
497
492
487
487
489
495
502
506
509
508
507
504
501
501
499
497
496
495
493
490
487
487
488
491
495
499
505
510
513
515
516
516
516
512
509
508
507
505
504
500
497
495
495
497
500
505
512
517
519
519
516
514
510
510
507
506
507
508
505
500
495
492
491
492
494
499
506
510
512
511
511
510
509
510
510
509
507
504
500
496
493
493
497
504
513
521
528
534
535
532
527
519
511
502
489
474
458
434
404
372
340
310
280
252
225
199
172
142
110
80
58
44
35
30
32
42
61
88
121
156
201
261
330
395
452
502
543
577
604
619
629
633
634
633
630
625
622
618
613
606
600
597
595
596
598
601
606
609
611
611
611
609
607
604
601
599
596
595
592
587
582
579
580
583
586
592
600
606
611
614
616
617
617
617
617
615
614
610
607
601
593
586
583
582
580
580
584
589
593
595
597
598
598
599
598
597
596
595
593
588
583
578
574
572
574
579
584
590
593
593
595
597
596
598
597
598
598
598
596
591
586
583
582
582
580
583
586
589
590
588
588
587
583
582
579
576
574
572
567
561
558
555
554
554
556
560
563
568
570
568
567
566
563
561
558
555
551
547
544
540
536
532
532
533
536
538
542
547
548
547
545
543
541
539
535
533
532
530
527
522
518
517
517
518
517
521
526
531
536
537
537
535
531
528
526
524
522
520
515
510
506
503
503
504
506
510
515
521
525
525
523
521
521
519
516
512
510
507
504
497
490
485
483
484
487
492
498
504
505
503
499
496
494
491
487
483
479
475
470
463
457
453
453
455
457
462
469
474
479
480
480
480
478
478
477
476
474
471
465
459
454
450
447
448
450
455
460
464
467
466
464
463
462
461
460
460
459
458
455
449
445
441
440
441
444
450
455
458
460
458
456
456
455
455
453
453
453
452
449
444
440
437
437
439
443
450
457
464
468
470
470
470
468
467
466
465
465
464
462
458
455
454
453
456
461
468
477
486
492
495
497
498
499
501
504
507
511
515
517
515
512
510
510
511
514
521
528
534
539
540
540
541
540
541
541
542
543
543
541
536
531
528
526
527
528
533
539
544
549
550
550
549
548
551
552
553
554
553
548
540
533
527
523
523
525
530
536
542
543
541
538
536
535
533
531
528
527
526
523
516
512
509
508
509
510
514
519
524
526
524
523
520
518
517
516
515
513
511
508
503
499
497
497
499
501
505
511
517
521
522
523
524
522
521
519
518
519
518
513
507
501
496
495
497
502
510
516
523
529
531
531
530
530
530
529
529
529
529
526
522
517
513
512
512
515
521
528
535
539
540
538
537
534
532
531
531
529
527
524
519
514
511
511
513
515
520
527
533
536
535
533
532
532
533
533
532
532
532
530
525
520
518
518
520
524
531
540
547
551
552
551
550
550
550
550
550
549
547
544
538
532
528
527
529
532
538
545
551
554
554
552
551
550
549
548
547
548
547
544
539
535
531
529
530
532
538
546
551
555
554
554
555
555
555
552
551
549
546
540
531
523
518
518
521
526
533
541
549
555
556
556
554
551
548
545
543
542
539
535
530
524
521
520
521
524
529
536
542
544
544
543
542
540
540
538
537
537
536
532
526
520
516
513
515
518
523
530
538
542
542
543
542
541
540
538
536
533
530
525
519
516
515
517
520
526
534
543
551
555
555
554
554
553
552
550
548
547
547
545
538
532
527
527
528
532
536
542
547
551
550
550
549
547
546
543
541
539
537
531
525
520
516
517
519
523
529
536
542
545
544
543
541
537
534
530
527
525
524
519
513
506
503
503
505
509
515
520
525
529
531
531
532
532
532
531
531
531
529
526
519
515
512
511
512
514
520
526
527
527
525
524
523
522
523
522
521
520
519
516
511
507
504
503
507
510
516
523
529
534
535
534
530
524
520
514
510
508
505
502
497
493
491
490
492
495
502
508
513
516
517
516
516
515
515
514
513
512
511
506
499
492
486
481
480
482
487
493
500
503
503
504
504
503
503
503
503
502
502
499
494
491
489
490
493
496
501
507
511
514
515
513
511
508
505
503
501
499
498
495
490
486
485
484
487
492
499
507
513
516
518
519
520
521
522
521
519
516
513
509
504
499
495
492
492
494
498
504
509
512
510
509
507
505
503
501
500
499
498
495
489
485
482
480
480
482
487
492
496
498
497
496
495
493
494
493
493
494
493
491
488
486
486
486
486
486
487
487
485
479
469
458
443
425
405
382
356
329
302
271
239
206
175
147
120
91
66
48
38
33
30
30
37
50
70
97
130
166
210
267
324
378
426
466
500
527
551
568
580
587
588
585
581
575
571
566
562
558
556
555
553
551
550
551
553
556
560
565
571
576
577
576
576
576
576
574
573
572
569
565
560
555
552
551
551
553
557
563
567
571
572
572
571
569
570
568
567
567
566
563
558
556
556
556
559
562
566
574
580
583
579
576
572
568
562
557
551
548
546
543
539
535
531
529
528
528
529
534
536
539
539
540
541
541
541
542
543
545
545
544
541
539
536
534
535
536
540
544
548
551
551
552
552
551
551
550
549
549
547
544
540
536
534
533
534
535
539
544
548
553
555
556
556
557
558
557
557
556
554
551
545
540
536
534
534
535
537
541
544
548
548
548
547
546
546
545
546
548
547
544
538
530
523
516
513
513
515
519
521
523
522
521
520
519
518
516
515
515
512
509
503
498
494
493
495
496
500
504
507
509
509
508
507
506
505
504
502
500
499
496
492
487
486
484
485
487
489
491
493
495
495
495
495
493
493
492
491
492
491
489
484
479
476
472
472
472
475
479
483
486
486
485
486
486
485
484
483
481
479
475
472
468
465
464
465
467
470
474
478
480
481
481
480
479
479
477
476
475
474
472
468
465
463
463
464
466
470
473
478
479
479
478
476
475
474
473
472
472
471
470
467
463
461
459
459
460
462
467
471
476
478
480
483
485
486
487
486
485
483
482
481
480
481
484
488
495
503
510
517
523
526
529
532
535
537
539
542
545
546
546
544
543
541
541
544
547
552
558
563
565
565
565
565
564
564
564
564
564
563
561
558
556
556
557
560
563
568
574
579
582
582
583
583
582
579
575
572
568
563
559
553
548
544
541
542
543
547
551
556
559
560
559
558
557
557
555
554
552
550
547
542
538
535
533
534
535
538
543
546
548
547
546
545
543
541
540
538
537
536
534
528
525
522
521
522
523
526
530
534
536
536
535
536
535
535
533
533
533
531
528
523
519
516
515
515
515
519
523
527
529
530
531
530
530
530
529
529
528
527
524
519
515
513
512
512
513
515
519
521
522
521
520
518
515
513
511
509
508
508
506
505
504
505
506
509
512
517
521
526
529
530
530
529
528
528
528
528
528
527
523
515
507
500
497
498
499
501
504
507
509
509
509
509
508
508
508
507
505
503
502
499
496
494
493
493
494
497
501
503
504
504
505
504
502
501
499
498
498
498
498
495
492
489
487
488
488
492
497
501
504
507
508
508
507
507
507
506
507
506
505
501
499
496
496
497
500
504
508
512
516
518
519
521
521
523
524
525
526
525
523
519
513
509
505
504
506
510
513
515
517
519
521
522
522
523
523
521
519
518
516
513
511
511
512
512
512
514
516
518
519
520
521
522
522
521
520
519
518
516
514
511
507
504
504
505
508
512
516
519
523
523
523
522
522
521
519
518
517
515
512
508
506
505
504
506
508
510
513
517
519
519
519
518
516
516
514
511
510
508
507
505
502
500
500
502
504
508
512
516
519
518
518
517
515
515
513
513
513
512
509
505
502
500
499
499
502
505
507
510
511
511
511
512
512
512
512
512
511
509
505
502
499
496
496
497
497
500
504
509
511
511
510
508
507
508
508
508
508
508
507
506
505
505
505
506
507
510
513
516
519
521
523
524
524
524
524
522
521
519
518
514
512
510
508
508
509
512
515
519
521
522
523
524
524
524
522
521
519
517
514
510
508
505
504
504
504
507
511
513
515
516
518
519
517
517
515
514
514
513
513
510
508
506
504
505
506
509
512
514
516
516
516
515
514
513
512
511
510
510
508
505
503
501
501
502
503
504
507
509
510
510
510
509
507
505
505
503
500
500
499
497
497
496
496
496
497
499
501
503
505
505
506
508
508
508
507
506
505
503
501
498
495
494
492
492
492
494
497
499
503
505
508
509
510
511
509
508
506
504
502
499
497
496
495
496
499
502
505
508
511
512
513
512
511
511
511
511
512
514
515
514
514
513
513
513
515
518
521
524
526
525
524
523
521
520
519
518
519
519
518
515
513
513
512
514
515
516
519
521
524
524
524
524
523
523
521
520
520
519
516
512
509
507
506
508
509
512
515
519
520
520
519
519
521
523
524
525
525
524
522
519
516
515
514
513
511
512
513
516
517
518
517
518
518
518
517
517
518
519
517
514
512
511
511
513
515
520
525
528
531
531
530
530
527
526
522
519
517
515
513
511
508
507
506
508
510
512
515
518
520
521
521
521
521
520
519
518
517
517
515
512
509
507
507
507
508
511
513
515
517
517
516
516
514
514
512
510
509
508
507
505
502
501
502
502
503
505
508
511
514
515
515
513
512
511
511
510
510
508
506
503
502
502
502
502
504
508
511
512
513
512
511
510
509
508
508
507
507
505
503
500
496
493
491
490
491
493
496
499
502
504
504
504
503
504
503
502
502
501
499
496
494
494
494
496
497
499
503
506
508
508
507
508
508
508
509
510
511
510
510
508
507
507
507
507
507
508
511
513
515
517
518
518
518
516
514
512
511
508
507
504
502
501
498
498
499
502
506
509
510
511
513
514
515
515
513
512
512
512
512
511
509
505
504
504
505
506
509
511
512
514
516
518
521
523
523
523
521
516
510
499
487
472
457
441
426
410
392
374
353
331
308
284
258
233
208
181
152
124
101
83
73
70
72
84
104
133
169
207
248
295
356
415
466
511
546
573
593
609
619
623
623
621
617
615
611
609
609
610
611
610
609
609
607
607
606
605
604
604
600
595
591
588
586
584
584
587
591
593
595
596
596
596
595
594
592
591
590
590
589
588
587
586
584
584
583
583
584
585
585
583
581
578
574
572
570
569
568
566
564
561
559
557
557
559
560
562
564
565
566
566
565
564
563
562
561
561
559
557
554
550
547
545
545
545
547
550
552
554
556
555
554
553
552
553
552
552
551
551
548
543
540
539
539
539
541
544
547
551
553
554
554
554
554
554
553
551
549
547
544
540
537
536
536
537
537
539
541
543
545
544
542
539
536
533
528
526
522
519
516
511
507
504
503
504
505
508
511
514
516
516
515
513
508
504
500
497
493
489
485
481
478
474
471
471
472
473
471
470
472
477
482
485
487
488
487
487
484
481
478
475
472
469
467
467
467
468
469
470
470
469
468
467
465
463
460
458
456
454
452
450
448
446
445
446
448
451
455
457
457
456
453
448
441
438
434
431
430
428
427
424
423
425
428
431
433
435
439
442
444
445
444
440
436
433
432
432
433
434
433
432
432
430
428
427
427
428
432
433
435
436
436
435
435
435
434
433
432
432
430
428
426
424
424
424
425
425
426
427
430
429
427
426
426
428
429
431
433
434
435
436
437
439
442
444
444
446
448
451
454
454
456
461
465
469
470
472
474
476
477
478
476
474
475
479
483
489
498
505
510
513
515
515
516
517
515
513
512
512
511
507
503
503
504
508
511
521
531
539
545
548
551
551
552
553
553
554
554
553
551
549
547
544
543
545
547
551
554
555
556
553
551
551
551
550
549
548
546
544
540
534
529
526
525
524
524
524
526
527
529
528
527
526
526
526
525
526
526
526
525
523
521
518
517
517
518
520
523
526
527
526
525
522
523
525
529
532
534
535
535
533
531
529
527
527
527
529
532
534
536
536
536
536
535
536
536
536
535
535
535
533
527
526
527
531
534
539
543
547
550
552
553
553
552
552
552
553
555
556
557
555
555
555
555
556
557
560
565
569
573
574
574
574
573
575
576
576
577
576
575
574
572
572
573
576
579
583
589
593
596
598
599
599
598
596
593
592
591
591
591
586
581
577
575
576
581
586
591
595
598
598
596
595
593
592
591
590
588
587
584
580
575
573
571
571
571
571
569
565
561
555
554
556
558
559
560
559
558
555
551
547
543
540
539
539
541
545
549
553
558
559
560
559
557
556
556
556
556
554
552
548
545
544
542
545
547
549
550
552
553
549
543
540
539
540
542
544
545
544
540
534
531
530
529
529
529
531
533
535
534
530
530
529
528
527
527
526
526
525
522
518
514
511
507
506
508
510
511
512
514
513
512
511
511
509
506
505
502
499
496
491
490
492
493
496
499
504
510
515
518
519
520
521
520
522
521
521
521
519
519
515
513
512
512
514
515
517
519
521
521
521
523
524
527
528
528
527
528
530
532
532
530
532
535
539
543
548
551
553
553
551
550
550
552
555
558
557
557
556
551
542
536
530
525
521
518
521
530
542
552
559
565
567
567
566
563
562
562
559
552
544
540
534
530
532
535
536
538
540
542
541
540
537
535
533
531
530
530
528
524
519
517
515
513
513
515
522
528
531
534
532
531
530
530
528
526
524
524
522
520
517
513
509
505
503
503
505
509
513
515
515
514
514
514
515
514
514
513
512
511
509
508
506
504
501
503
507
512
516
521
523
524
524
524
526
526
525
524
522
519
513
506
501
498
499
501
505
508
511
513
515
517
517
516
516
513
511
508
505
502
497
495
493
493
495
497
502
506
511
514
515
514
511
508
508
508
508
509
509
506
500
496
495
494
495
497
501
504
505
504
504
505
507
507
502
496
492
491
493
493
493
493
492
496
500
505
508
512
517
518
516
515
512
509
505
500
496
494
488
483
478
473
472
476
481
484
488
492
494
496
497
497
494
493
496
498
496
497
497
496
493
488
487
489
492
496
502
510
517
518
518
519
518
517
515
511
510
511
509
504
498
493
490
488
489
492
497
502
505
508
510
509
506
503
502
500
499
498
496
491
485
480
478
479
482
487
492
499
506
510
512
513
513
512
513
513
513
515
515
512
507
504
502
501
504
506
511
517
521
524
524
524
524
526
527
526
524
522
519
514
507
502
498
497
497
503
512
519
526
529
529
528
527
526
524
523
521
519
516
510
503
497
493
492
492
494
499
505
510
515
518
521
524
526
526
523
518
511
502
490
475
459
443
426
409
391
372
353
332
307
279
248
220
191
161
129
102
80
64
53
47
45
52
67
89
121
161
207
261
326
385
438
480
514
540
563
581
594
600
598
595
589
583
582
583
582
583
587
589
589
586
583
580
580
581
579
581
581
579
577
575
574
573
574
577
582
588
593
596
598
598
596
595
593
590
588
585
583
581
576
571
566
564
563
565
568
571
576
580
582
579
577
575
573
574
573
571
566
557
545
535
526
519
517
517
515
518
520
523
525
524
523
519
516
514
512
512
511
511
506
500
495
493
493
496
499
505
511
514
514
513
510
508
507
507
505
504
504
502
499
495
491
488
487
489
494
499
506
513
517
519
518
518
515
512
510
510
509
507
502
496
493
494
496
496
498
503
508
509
510
511
513
515
516
517
517
517
516
514
511
505
501
500
499
500
503
508
515
520
521
521
523
520
517
518
518
517
516
514
510
505
499
497
497
500
504
508
512
515
514
511
511
512
512
511
510
508
507
505
501
496
492
489
489
490
493
496
501
505
506
506
506
506
505
504
502
501
500
498
493
488
484
482
483
484
487
491
496
500
503
503
502
502
501
501
500
500
502
502
499
494
488
485
483
485
488
493
496
499
500
498
496
493
489
487
484
483
482
481
477
472
465
462
462
463
467
472
479
483
484
486
486
484
483
482
483
483
483
481
475
470
466
464
464
467
473
481
488
495
497
496
496
496
496
498
496
495
495
494
492
487
481
477
475
477
483
491
499
507
512
515
518
519
521
523
522
523
523
523
521
518
515
513
514
517
521
527
535
540
542
544
546
547
548
548
547
548
548
548
546
544
543
543
546
551
557
566
574
582
585
586
584
583
583
583
581
580
581
581
580
577
575
574
574
577
580
585
590
593
593
591
589
586
583
581
579
577
576
575
570
565
560
558
557
557
560
564
570
572
573
572
572
572
569
568
566
563
562
561
557
554
552
552
553
555
557
560
565
569
570
570
571
570
569
567
563
561
560
560
556
552
549
548
548
550
552
556
559
561
561
560
560
557
555
553
551
550
549
547
542
536
532
529
527
528
529
532
536
538
537
535
535
536
537
538
538
539
540
540
537
533
529
526
523
523
523
527
531
536
537
537
536
535
531
529
527
527
528
529
530
528
527
525
523
523
524
525
528
531
534
536
537
538
536
534
530
527
526
524
521
517
514
512
512
515
517
520
523
527
527
526
524
524
523
523
523
523
523
522
519
517
515
513
512
513
516
521
527
532
535
535
534
534
533
533
533
532
532
531
530
528
527
527
528
530
532
536
541
545
547
547
546
546
545
545
544
544
544
544
543
540
538
537
536
537
540
542
545
545
545
543
543
543
544
545
547
549
552
552
551
550
549
549
551
552
553
555
555
552
550
547
545
544
542
541
540
538
537
536
534
530
527
523
522
524
527
532
537
540
541
539
539
538
536
535
532
530
529
527
524
519
515
514
512
514
515
518
522
525
526
524
523
521
520
520
519
519
519
518
515
511
508
505
504
505
506
508
512
514
515
513
512
511
510
510
508
507
506
504
501
498
494
492
490
491
492
496
500
505
508
510
511
512
512
512
510
508
507
503
498
494
491
487
484
482
481
481
485
487
489
491
493
493
491
490
487
485
483
481
476
470
463
459
459
463
467
475
482
487
492
494
493
491
490
488
487
486
486
485
482
477
474
472
472
474
477
480
483
487
487
487
486
485
484
481
476
472
470
471
471
468
467
467
468
471
476
482
487
491
492
494
495
496
496
494
491
488
488
487
484
480
478
477
478
480
484
490
496
499
500
499
498
496
495
494
495
495
496
495
492
487
483
482
483
483
486
489
492
495
496
497
498
499
502
503
504
502
499
496
493
489
486
485
484
485
486
487
490
495
499
500
501
502
503
503
502
501
500
499
496
493
490
489
490
492
494
499
504
509
511
512
513
512
510
509
508
508
508
506
504
502
501
502
504
508
511
517
520
522
523
522
521
519
518
517
517
516
515
515
512
508
505
502
502
504
508
512
516
519
520
520
519
519
520
522
523
525
526
526
522
516
512
509
508
510
512
518
524
527
527
527
527
526
524
523
522
521
520
520
518
513
511
510
510
511
512
515
517
520
521
521
521
521
520
520
520
523
525
526
524
521
519
519
518
519
521
524
527
528
527
526
524
521
519
519
518
519
520
521
521
520
519
520
521
523
526
529
533
534
534
534
534
535
535
534
534
533
532
531
527
525
523
523
522
521
521
521
523
526
527
531
531
532
532
531
531
531
531
529
526
522
518
515
515
516
517
519
520
524
524
523
523
521
521
520
519
518
516
513
509
506
504
504
507
511
517
523
527
527
526
519
513
504
494
480
466
449
430
410
386
360
335
311
287
265
243
223
204
183
160
139
121
108
103
102
107
122
147
177
210
246
287
336
393
443
487
524
553
575
592
605
615
623
624
624
622
617
612
607
601
595
588
585
583
583
584
588
590
591
589
584
579
575
572
571
569
568
568
566
563
559
556
555
556
559
562
565
568
568
568
566
565
564
564
564
564
564
563
560
557
553
550
547
547
548
550
552
555
555
555
553
551
547
543
540
540
540
540
539
536
532
529
526
524
521
520
522
526
531
535
537
540
542
541
540
537
536
536
531
527
524
523
523
519
513
514
519
522
525
526
525
526
527
528
529
528
527
524
521
521
521
519
519
521
524
527
529
530
531
532
532
532
532
532
532
531
531
531
530
528
525
523
523
522
521
520
523
527
530
533
536
536
537
538
538
536
534
532
529
525
520
513
508
505
505
508
513
518
522
526
528
529
529
527
526
524
521
519
517
514
511
509
509
511
512
513
517
520
523
524
527
527
527
525
520
516
514
511
508
501
497
496
495
496
496
495
491
494
500
503
506
507
505
505
506
505
505
496
487
479
476
478
484
486
488
489
487
486
486
481
477
483
490
486
481
480
485
487
483
480
484
487
481
476
470
464
458
455
457
458
454
453
459
462
467
465
463
459
456
458
455
452
450
451
450
453
454
456
458
458
455
452
452
450
449
448
447
447
446
444
445
448
449
450
449
451
454
457
459
458
460
461
461
463
463
459
454
455
460
465
472
478
483
485
486
486
489
496
503
509
512
514
516
519
519
521
524
525
527
527
525
524
525
527
531
537
541
544
547
546
543
542
543
545
547
551
556
560
562
564
566
567
566
567
569
572
577
583
585
587
585
585
585
585
584
583
583
583
581
579
576
576
573
572
572
574
579
585
588
592
594
596
598
599
598
593
587
579
571
564
562
566
569
571
574
575
575
580
583
584
583
585
585
583
579
575
574
572
571
567
562
560
558
558
559
560
562
566
568
568
566
563
560
558
557
557
557
556
556
553
550
547
544
543
540
539
541
539
536
535
534
535
536
538
539
538
535
532
532
529
524
523
520
518
519
520
524
529
531
533
537
540
541
542
540
540
543
543
541
540
536
535
533
534
535
537
539
540
540
536
531
527
524
524
523
522
517
511
505
500
496
491
489
487
486
487
490
492
493
494
495
494
495
497
499
497
495
492
490
486
481
477
474
475
476
479
483
487
492
494
495
493
492
493
494
492
491
490
490
488
486
486
486
486
487
487
488
490
493
494
492
488
484
479
476
473
470
467
465
460
453
451
453
455
456
459
461
461
462
463
464
464
463
463
463
464
468
471
471
468
465
461
458
455
455
458
461
462
467
468
467
467
467
468
468
467
467
467
467
466
470
474
474
474
474
478
481
485
488
489
486
486
486
487
486
485
483
481
480
480
481
483
486
487
490
495
504
512
518
522
525
526
526
527
525
514
507
504
504
502
503
504
507
508
512
514
518
521
526
527
525
522
525
528
528
526
526
527
529
531
533
535
536
537
539
541
544
548
552
551
547
543
540
540
539
537
540
541
542
543
541
538
536
539
544
549
552
556
559
563
562
560
557
556
557
557
559
560
560
558
555
553
554
557
560
564
571
577
578
575
570
568
566
564
559
552
545
542
540
537
535
535
535
537
540
543
547
550
554
557
558
558
555
551
551
550
548
550
551
549
547
547
547
544
545
547
552
559
562
562
558
553
545
541
541
540
538
536
534
532
530
530
532
534
537
542
546
547
547
544
541
537
534
531
527
526
525
525
525
521
518
514
512
511
513
513
518
522
526
527
527
527
527
526
524
520
516
515
513
509
505
498
494
491
488
487
491
497
503
505
508
513
518
519
519
519
519
517
515
510
503
498
495
493
494
497
502
508
514
518
521
523
525
527
527
524
519
518
519
516
513
512
511
512
514
516
521
526
531
532
530
528
526
523
521
519
514
510
509
507
506
504
503
504
506
510
517
523
525
523
521
519
518
517
516
517
519
520
521
518
514
511
509
508
508
510
513
517
520
520
518
516
514
513
512
511
509
507
504
498
493
489
489
492
493
491
494
501
507
511
513
513
512
510
509
508
506
505
503
499
494
491
490
493
497
500
503
502
502
501
500
500
498
497
497
498
498
499
499
496
493
491
492
494
499
507
514
523
527
528
527
524
522
519
517
515
514
513
511
505
499
494
491
491
493
497
504
510
514
515
513
512
512
512
514
518
521
524
526
525
522
519
519
518
520
525
531
536
539
538
534
531
529
528
529
527
524
523
523
518
510
507
506
507
509
511
517
523
524
524
524
526
525
524
524
523
523
523
522
519
515
514
515
518
521
528
539
550
561
568
572
571
569
563
555
543
533
524
511
493
472
447
423
400
380
361
343
324
303
279
251
222
194
170
150
136
130
131
139
153
173
199
233
278
334
398
459
509
545
570
586
600
612
623
631
635
635
632
626
617
608
601
596
594
593
593
593
596
601
604
606
608
609
610
612
613
613
615
613
605
595
587
579
575
576
582
590
600
607
608
606
603
600
599
598
597
597
601
600
600
600
598
592
591
592
596
603
610
615
616
616
617
617
615
611
607
603
600
595
588
580
572
568
564
563
565
568
573
577
578
575
571
567
562
555
546
538
535
534
532
529
530
532
534
533
533
537
543
543
541
536
534
533
532
532
531
528
527
524
518
512
507
505
506
510
515
522
529
535
537
537
534
531
530
530
528
524
519
515
509
504
502
503
506
510
515
522
530
533
535
537
536
535
533
531
529
527
524
521
516
511
505
502
502
504
507
511
515
518
519
515
510
505
502
497
496
497
499
498
495
491
486
484
487
496
506
512
510
507
506
507
506
502
496
495
497
497
496
494
490
482
473
474
477
479
487
498
508
514
519
521
525
532
534
529
524
515
512
505
496
486
478
469
472
475
479
486
486
479
461
457
460
463
454
446
442
441
446
449
440
434
430
422
418
430
443
454
461
465
465
463
464
467
466
469
470
470
465
451
432
425
428
426
421
413
417
428
450
463
463
458
451
449
448
446
448
453
454
451
448
448
441
436
430
426
427
432
446
454
455
455
455
461
462
467
466
461
461
464
467
465
468
471
476
479
487
492
497
502
504
497
492
488
485
484
487
491
494
494
490
486
481
483
487
495
504
513
522
528
530
532
535
538
540
544
546
547
548
547
545
541
539
537
539
543
548
555
567
573
574
574
571
567
566
566
566
566
565
566
562
556
550
547
549
550
553
560
568
575
578
578
579
578
576
574
572
571
569
568
557
551
550
550
553
557
563
571
579
586
587
585
582
579
575
573
572
575
576
574
567
556
548
547
550
551
548
540
533
535
541
546
548
552
555
553
549
544
545
542
535
530
527
527
528
528
531
541
551
555
555
551
548
541
532
521
515
515
515
514
515
517
518
514
512
515
517
518
522
526
525
524
525
523
519
519
518
520
519
515
512
515
515
513
507
508
515
525
535
540
539
537
535
531
524
513
507
502
497
496
496
494
491
493
492
489
483
481
487
496
502
508
513
514
521
518
511
505
505
504
503
502
502
499
499
499
503
509
514
516
521
519
514
510
505
504
502
496
489
483
482
483
489
493
496
493
495
501
506
504
495
491
488
480
478
485
493
501
507
507
502
492
489
492
496
500
505
512
520
524
524
523
523
521
522
523
524
528
529
530
528
525
523
522
523
522
523
525
527
529
531
532
532
532
529
528
527
526
524
521
518
512
506
501
501
504
510
520
531
540
542
541
540
537
536
536
536
535
534
532
530
529
527
526
527
528
532
538
541
540
538
539
539
539
536
536
536
536
538
539
532
526
523
524
526
530
539
550
560
566
568
573
579
582
585
580
574
569
568
569
568
561
555
550
547
552
555
567
573
577
579
582
582
584
583
581
573
568
560
549
530
512
505
508
510
503
494
491
493
497
496
494
492
489
487
485
485
483
483
478
472
467
463
456
452
456
467
478
487
493
497
497
500
505
509
515
523
530
540
547
550
551
547
530
511
507
516
527
525
511
502
499
503
511
518
525
529
532
532
529
529
532
534
536
540
543
543
541
536
528
515
502
497
493
486
472
459
451
448
447
444
438
428
419
413
409
407
408
408
408
405
401
395
389
387
387
387
389
388
380
367
352
339
331
324
319
319
320
320
317
311
310
311
305
300
298
299
299
299
299
294
294
295
306
316
323
323
312
308
308
304
298
292
295
303
305
303
304
307
307
302
303
304
303
305
309
307
305
302
298
295
294
295
298
299
297
297
300
302
303
302
302
302
302
304
303
304
303
303
304
303
297
284
271
263
263
268
274
276
275
270
265
265
267
269
272
278
284
291
296
295
293
292
298
306
310
311
308
307
308
307
294
287
287
291
292
295
294
295
300
303
307
299
300
304
304
307
309
309
305
301
302
301
299
296
295
298
304
310
312
314
317
319
315
305
303
306
312
317
317
316
314
313
311
308
312
321
334
348
358
362
361
352
343
345
348
354
357
359
362
365
370
372
370
365
366
368
373
384
395
403
408
411
410
408
408
408
405
400
396
396
398
393
393
386
385
391
398
408
417
423
423
417
412
415
420
425
431
429
423
420
422
427
428
432
439
451
457
460
457
452
451
455
461
461
452
445
438
431
421
409
395
376
359
341
321
300
276
256
239
224
211
194
179
161
137
116
101
96
102
111
127
148
176
211
245
280
329
386
445
489
520
542
556
573
577
588
600
604
605
601
594
587
577
567
561
562
568
574
572
562
555
553
553
552
550
546
543
542
540
537
531
529
528
531
531
533
537
540
540
536
534
536
537
532
526
521
520
525
527
521
518
519
521
526
527
526
525
528
532
534
531
530
527
525
521
517
515
515
517
519
515
512
510
512
514
518
520
523
522
519
515
512
510
508
507
510
515
521
523
524
527
534
528
528
530
533
539
539
541
542
535
530
529
527
524
526
528
530
530
530
527
527
528
530
530
532
536
539
541
541
540
540
538
536
537
538
539
540
539
537
535
532
532
533
533
532
532
535
532
531
533
532
531
531
529
527
526
527
525
523
524
526
529
532
537
548
559
562
561
558
554
550
547
547
547
549
552
553
553
553
551
547
545
547
550
552
553
557
559
559
559
560
562
565
567
571
576
580
583
584
583
579
575
570
566
569
575
575
580
584
585
585
585
584
584
586
583
576
568
554
547
545
545
549
556
563
570
575
579
581
583
584
588
589
590
589
588
588
588
585
583
581
580
575
574
575
574
576
577
578
581
581
580
577
576
577
577
579
578
575
572
570
569
569
569
569
572
575
575
577
577
574
569
565
558
552
545
540
535
529
525
518
516
516
515
519
524
530
532
533
532
532
531
531
533
534
536
539
540
539
539
539
540
542
545
547
551
555
558
559
560
559
558
557
557
560
563
569
575
578
580
583
587
591
599
607
615
623
628
631
631
633
633
626
626
627
627
625
622
619
616
615
616
620
624
629
634
640
644
647
649
651
653
654
654
655
654
654
652
648
645
643
642
641
641
641
643
646
647
647
646
644
642
640
638
637
637
636
633
628
627
628
632
636
639
645
653
661
668
673
675
677
676
677
677
677
677
675
670
664
659
655
654
658
660
660
664
667
668
668
668
666
664
664
664
667
666
664
663
661
658
657
655
658
657
657
664
669
669
668
665
661
657
655
654
652
651
650
647
643
640
637
634
633
633
635
639
643
644
647
646
643
640
638
635
630
628
625
622
617
612
609
608
609
611
614
616
615
615
612
608
603
597
595
595
594
593
596
594
595
599
603
607
613
618
624
630
634
636
636
633
629
626
624
622
621
619
617
613
607
600
596
594
593
594
594
600
606
611
615
618
621
623
624
624
624
623
622
621
617
614
611
611
612
613
617
622
623
623
621
616
612
608
606
603
600
598
596
594
588
584
582
581
583
586
591
598
604
607
608
607
604
601
600
598
597
597
595
592
593
588
581
582
582
583
587
590
594
595
595
594
592
590
588
587
585
583
582
579
575
572
570
570
571
574
579
584
589
591
591
591
592
593
588
581
577
575
575
571
562
554
553
555
558
563
568
573
579
580
581
582
582
580
579
576
573
570
568
564
559
555
555
556
559
564
570
577
583
587
588
585
583
579
575
573
571
569
567
563
557
552
549
548
548
551
555
561
568
572
573
574
573
572
571
568
564
563
559
556
552
550
547
547
551
558
567
575
582
585
585
584
582
578
575
573
571
571
571
569
563
556
552
554
556
560
565
568
572
575
577
579
579
576
573
571
571
571
572
570
567
565
562
560
558
562
571
580
587
590
590
588
587
583
581
578
575
572
568
562
556
552
552
555
558
561
568
577
585
588
588
584
583
584
587
588
589
591
591
580
572
568
568
569
571
573
576
579
583
585
588
588
586
585
584
583
586
583
575
571
565
560
555
552
551
552
556
560
564
565
563
561
560
558
556
552
550
545
541
535
528
522
518
515
515
517
522
527
536
540
540
541
542
542
541
540
538
535
532
528
524
519
518
518
519
523
527
534
540
545
545
544
542
542
540
537
534
532
529
525
519
515
512
511
512
517
526
535
541
545
546
545
543
541
540
541
542
540
537
535
531
525
522
522
524
528
534
539
542
543
540
536
532
530
529
528
527
527
526
521
515
512
511
509
510
513
517
522
526
529
528
518
515
513
509
505
502
500
499
497
492
488
487
488
491
495
501
508
515
518
519
517
515
513
512
512
512
510
510
508
506
502
502
502
504
509
515
521
527
532
535
536
535
534
534
534
534
535
536
534
529
524
521
522
526
530
536
541
546
548
548
545
541
539
536
533
529
528
527
524
519
515
513
512
512
513
517
523
528
531
534
535
536
536
536
535
534
531
525
515
503
487
471
455
439
423
408
393
374
351
325
297
267
240
215
191
168
150
138
130
127
129
139
157
185
219
261
309
363
422
487
554
611
653
681
697
704
707
707
706
700
693
686
680
672
664
659
660
660
658
652
642
630
619
610
601
591
586
581
574
564
556
549
546
548
553
563
571
575
579
582
582
578
572
568
568
568
568
567
561
555
548
546
546
550
554
560
567
574
577
578
577
576
574
571
567
565
562
558
550
542
537
534
534
535
536
540
545
549
551
551
550
551
551
552
552
551
551
550
546
543
540
537
537
540
542
547
551
555
556
554
550
543
540
536
533
530
527
524
520
516
512
511
512
513
515
520
525
529
531
531
531
533
532
531
529
527
525
522
516
510
504
500
500
501
506
513
520
525
527
527
525
521
518
513
508
505
503
500
495
488
484
482
481
481
484
489
495
500
503
503
502
501
498
497
495
492
489
485
480
474
470
468
468
471
474
478
483
487
491
491
491
491
490
487
485
482
480
478
471
464
460
458
456
456
457
462
467
471
472
472
470
468
466
463
462
457
455
451
445
437
429
423
419
420
421
424
429
435
440
442
442
443
443
444
443
442
443
443
439
433
428
425
423
424
425
428
431
433
434
432
430
428
426
426
426
425
424
423
419
414
409
407
406
408
412
416
421
427
430
432
434
435
438
440
442
446
448
448
445
441
440
438
439
442
446
451
455
458
458
455
452
447
444
442
443
442
441
440
438
436
435
436
440
446
452
459
468
476
481
482
483
484
486
487
487
488
489
490
488
484
481
480
483
488
494
502
510
516
521
524
525
525
526
527
527
527
527
529
527
525
525
526
530
534
537
542
548
555
560
561
563
563
563
562
560
560
560
559
555
548
543
540
540
543
548
554
560
565
567
566
565
564
563
563
561
561
561
560
556
551
545
542
540
542
544
548
552
556
558
559
558
557
555
553
551
548
544
541
537
534
531
529
529
530
531
534
538
541
542
542
542
543
543
543
542
540
538
537
534
530
527
525
523
525
528
531
533
534
534
530
526
524
523
522
521
519
519
517
514
511
508
507
507
508
510
513
517
519
519
518
516
515
514
513
512
512
512
512
510
507
504
502
501
500
500
502
504
505
507
507
505
504
503
502
502
502
502
502
502
500
499
498
497
498
499
501
504
507
508
507
506
505
503
502
501
499
499
499
496
493
490
487
487
487
488
492
498
503
506
507
508
509
511
512
512
512
511
509
505
502
498
496
495
496
497
499
502
504
505
505
507
510
512
512
511
510
508
507
504
499
496
493
492
492
494
497
500
502
504
504
504
502
501
501
500
500
499
497
493
489
485
483
484
487
489
493
496
499
501
500
499
499
498
499
499
499
501
502
501
500
500
501
503
505
508
511
515
517
517
516
515
513
512
512
511
511
511
510
507
504
502
500
500
501
504
507
513
517
520
521
524
526
527
528
529
529
529
528
525
521
518
515
513
512
513
516
521
526
529
530
531
529
528
527
526
523
521
518
513
507
503
500
499
502
504
508
512
516
518
518
517
515
513
511
509
508
507
505
502
498
495
492
491
491
491
493
496
499
499
499
499
500
501
503
504
505
507
508
506
503
498
496
496
497
500
505
511
514
514
512
512
511
510
507
504
503
502
503
501
499
496
495
494
496
497
500
504
510
513
513
513
513
513
514
514
515
516
515
513
510
506
504
503
505
507
512
519
524
527
529
528
526
525
525
525
523
522
519
515
510
505
501
500
503
508
514
521
529
533
534
534
535
536
536
535
535
535
533
529
523
517
512
509
508
509
512
515
519
520
520
520
520
521
523
524
525
524
524
520
515
511
508
507
508
511
516
520
525
528
529
530
530
529
524
519
512
508
507
505
504
505
506
508
511
516
523
527
529
526
525
526
527
528
531
533
534
535
534
529
523
517
513
511
511
513
518
525
529
530
531
530
529
528
528
530
532
533
534
531
528
524
522
521
521
524
529
533
537
540
542
543
543
543
542
542
542
540
536
529
523
516
512
511
513
516
523
528
533
535
535
534
534
534
534
532
531
531
531
529
525
521
519
520
522
525
528
533
536
537
536
534
528
524
521
519
516
512
506
501
498
495
494
495
498
502
507
512
514
512
508
505
506
507
505
504
502
504
504
501
496
490
485
482
480
483
487
492
496
497
497
497
499
499
498
497
495
495
494
491
487
484
483
484
487
490
496
504
510
513
514
514
512
512
512
512
512
512
512
508
505
501
500
501
501
502
504
508
511
511
508
504
501
498
497
496
496
496
496
492
487
484
482
483
485
488
492
497
502
503
502
503
505
510
515
516
516
512
507
499
489
475
461
448
432
415
397
380
361
340
318
294
267
236
207
177
144
109
76
47
25
12
6
7
17
40
75
115
162
214
269
336
402
460
510
548
577
601
617
625
627
624
621
618
615
613
613
614
614
610
606
601
597
592
588
583
580
579
576
572
569
567
566
567
569
573
579
586
592
595
594
592
591
588
585
581
577
574
568
561
554
549
546
545
546
549
554
560
564
567
567
567
567
567
568
568
569
569
568
565
562
559
556
553
551
551
556
561
564
568
568
564
558
553
551
551
553
554
553
548
541
534
531
530
530
533
539
545
552
552
551
546
537
529
527
528
532
538
539
535
529
520
511
508
512
521
533
545
555
556
552
548
543
542
543
545
547
547
547
543
539
535
534
536
541
546
551
556
562
563
561
559
556
553
552
552
551
549
545
539
530
521
513
505
499
496
498
502
505
506
506
505
504
503
502
501
501
501
501
500
498
497
497
498
501
505
510
516
520
520
518
517
516
516
514
510
504
501
499
497
494
490
490
490
491
493
495
498
500
502
501
499
497
495
494
493
492
494
494
494
492
493
494
496
499
504
508
511
513
513
512
509
504
499
496
494
493
492
491
488
484
480
478
477
477
479
482
487
490
491
491
489
489
488
489
490
490
489
486
482
477
474
472
472
474
478
481
484
487
490
492
494
494
493
492
489
486
482
480
477
473
471
470
470
472
476
481
483
484
483
483
482
480
480
481
482
481
480
479
475
471
468
468
467
464
460
463
470
480
487
493
497
502
505
508
509
510
511
510
508
508
508
512
516
521
527
534
542
552
559
564
568
573
576
579
579
579
581
583
585
585
586
587
589
592
596
602
606
606
604
605
609
612
616
619
621
622
623
623
622
620
619
617
617
619
618
617
615
614
614
614
613
608
600
592
585
582
583
587
588
590
592
594
597
599
600
603
606
605
603
599
596
595
591
590
587
588
589
589
588
585
579
572
567
567
568
569
570
566
561
557
555
553
553
557
559
559
556
551
545
538
531
527
524
523
522
522
523
524
523
521
519
516
514
513
512
511
510
509
507
506
505
504
502
500
500
502
503
505
506
505
506
506
507
510
511
511
511
511
508
504
502
501
502
505
507
509
512
515
515
511
505
498
494
492
490
490
491
492
489
486
484
483
483
485
490
498
502
504
504
501
496
492
487
485
483
482
481
479
476
473
470
469
470
473
480
489
500
509
515
517
518
514
510
505
502
502
503
504
501
498
495
492
488
488
489
492
495
498
499
499
499
499
498
497
496
494
493
492
490
487
487
486
487
489
493
496
499
502
503
503
503
502
497
491
485
483
487
491
492
490
487
485
483
482
481
480
480
478
474
470
467
468
470
473
478
481
483
483
482
480
479
479
478
479
480
480
481
483
484
484
484
483
483
484
485
484
484
485
483
479
475
473
473
472
472
474
477
481
483
481
481
481
483
486
486
484
480
477
476
476
473
468
468
473
482
492
501
502
495
487
487
490
494
496
493
491
491
492
492
489
488
489
491
494
500
504
501
496
492
494
500
506
509
512
515
516
517
516
512
503
493
483
476
474
476
481
493
504
509
511
515
518
520
523
523
523
522
519
514
509
505
504
504
507
511
515
521
525
527
527
526
522
517
513
511
511
511
511
508
504
503
503
505
509
515
520
526
529
529
527
523
519
515
512
511
511
511
511
508
505
502
502
505
511
517
526
537
545
547
543
536
531
528
531
533
531
522
516
514
512
509
508
512
518
523
530
536
542
544
544
545
545
544
544
543
543
542
540
536
532
527
526
525
526
527
531
536
541
542
542
542
541
540
538
535
532
531
530
524
516
513
512
512
513
515
520
526
531
534
532
529
527
527
527
526
524
522
519
513
508
502
496
491
487
485
485
488
492
492
494
496
499
502
503
504
505
507
508
506
502
499
497
498
499
502
505
510
514
517
518
519
519
518
516
515
514
515
516
516
514
511
509
507
508
514
521
527
526
523
520
518
517
515
515
514
515
517
519
519
518
515
513
516
519
523
525
526
527
526
524
524
525
525
524
522
524
527
532
536
536
537
537
537
537
536
531
521
511
502
490
476
457
435
410
384
359
329
296
261
228
199
169
137
108
87
71
64
61
62
69
83
110
144
184
227
279
346
410
464
511
546
578
604
623
636
646
653
654
649
644
639
631
625
624
622
622
624
622
617
607
601
601
604
607
607
606
608
610
613
615
615
609
606
601
598
593
591
591
587
580
573
570
571
574
577
578
578
577
577
577
579
579
578
578
578
577
577
576
571
567
565
568
569
569
569
572
576
577
577
575
572
570
567
565
563
562
560
559
558
552
544
537
534
536
540
545
548
550
550
548
547
547
547
545
541
538
537
535
531
526
520
515
513
516
520
526
531
535
536
536
535
534
535
535
536
537
539
538
534
527
523
520
520
519
519
518
521
520
513
503
496
497
502
509
515
518
518
512
502
494
491
490
492
499
506
515
519
521
519
514
508
501
495
489
487
485
483
480
475
468
465
461
463
469
475
482
492
498
501
499
497
492
487
486
482
476
478
484
487
487
487
491
496
504
510
513
513
511
508
505
503
500
498
493
490
486
483
481
478
475
472
472
473
477
482
490
496
499
498
494
488
485
483
482
481
480
480
478
475
472
471
471
472
472
474
476
479
480
483
486
483
474
465
464
467
473
481
485
481
477
476
477
478
479
480
481
483
485
486
485
486
486
486
483
479
477
478
477
474
471
465
460
462
465
469
476
483
488
487
483
480
478
477
478
479
478
472
462
454
453
452
453
455
460
464
476
488
496
499
496
496
499
499
497
500
505
508
507
502
499
499
499
499
502
506
512
517
521
525
526
529
535
539
541
539
535
531
529
527
524
521
519
520
524
531
540
548
551
550
552
556
558
560
559
556
556
556
557
556
554
547
543
541
541
547
558
566
572
575
576
575
575
575
577
579
577
572
572
569
563
563
559
553
550
551
556
562
563
563
561
560
559
560
563
565
568
569
568
566
563
555
547
540
543
550
556
562
565
568
569
571
570
560
550
547
548
553
556
555
551
549
549
551
555
559
566
569
572
571
568
560
555
550
545
537
536
535
527
519
514
513
516
523
531
539
549
560
566
568
567
564
562
561
559
553
548
548
547
544
540
534
530
530
534
542
549
553
552
549
550
550
549
548
550
549
550
550
547
543
538
532
522
519
522
524
527
531
534
535
531
527
523
519
516
514
514
517
517
509
498
494
496
494
487
486
492
500
506
505
502
499
497
497
496
495
496
499
498
495
491
488
488
487
486
490
498
505
502
496
495
495
496
496
490
480
471
467
470
471
471
471
475
481
490
497
504
515
524
527
526
526
526
525
526
527
527
526
527
516
503
489
484
484
489
505
523
539
546
549
552
555
557
560
558
551
545
539
527
514
505
499
496
497
503
512
523
533
541
542
538
533
528
524
521
517
516
516
515
510
497
489
488
493
501
508
517
531
540
542
538
533
528
522
511
502
498
499
499
495
492
487
482
484
488
494
502
511
519
521
521
520
519
518
515
511
508
503
496
486
478
472
469
471
475
483
496
508
516
519
521
521
522
523
524
525
525
524
519
510
500
491
483
480
481
486
493
503
509
511
509
509
507
504
502
500
499
500
498
493
490
489
492
498
507
516
527
537
543
540
531
517
501
488
484
485
488
487
482
471
461
456
457
459
464
472
481
492
502
506
508
508
508
507
505
503
501
499
494
481
467
457
454
457
463
472
485
501
512
512
507
501
499
500
502
503
505
506
502
489
476
466
462
463
470
482
498
512
523
527
529
529
527
521
516
512
509
505
496
484
472
464
463
468
475
487
503
518
528
532
531
527
522
517
513
508
504
500
494
483
472
467
469
477
491
509
527
545
553
551
547
542
536
527
518
508
495
479
456
423
386
351
319
291
265
243
224
210
191
163
131
103
80
64
57
58
68
87
107
132
165
207
260
327
396
459
515
560
591
608
623
636
645
646
645
643
638
635
628
614
599
583
571
563
560
563
571
581
588
589
590
590
588
583
578
577
579
582
578
568
559
553
550
552
559
571
587
603
609
610
610
608
602
595
591
591
592
591
582
572
564
559
559
561
569
581
595
609
617
618
616
611
602
596
592
590
587
583
575
562
551
546
547
551
561
572
586
601
609
612
609
605
600
593
589
585
582
579
572
561
549
540
538
540
544
554
568
582
590
592
590
586
579
573
567
563
560
557
549
537
526
517
511
510
513
523
536
550
560
567
571
575
576
575
572
567
562
560
553
543
533
524
520
519
520
524
536
548
556
559
560
559
559
555
552
547
539
531
524
511
496
487
483
486
491
499
511
523
530
531
529
527
525
524
524
523
518
510
498
484
470
462
458
458
462
470
480
488
493
495
496
497
496
493
492
491
488
483
475
464
456
451
449
445
444
448
458
471
479
482
481
479
479
477
476
475
474
473
470
460
451
445
446
447
449
456
468
479
487
490
491
489
486
480
473
466
460
457
451
440
430
425
424
427
432
441
451
463
467
465
464
463
463
462
461
460
458
457
455
448
440
435
435
437
441
448
455
464
471
473
473
472
471
468
468
469
472
473
469
463
455
450
446
440
433
437
449
463
472
476
473
470
467
466
464
464
465
467
468
464
460
457
460
466
477
492
508
520
529
531
531
532
532
533
535
536
538
540
539
532
525
518
515
517
523
531
541
553
563
568
571
573
575
576
577
576
574
569
563
556
553
551
554
558
563
569
574
577
577
570
558
545
536
528
521
514
507
499
491
480
471
466
466
468
476
490
509
531
554
578
604
628
647
658
659
653
650
654
665
676
682
681
673
661
649
639
629
619
605
583
557
533
514
499
490
483
478
472
466
459
451
449
452
455
455
459
464
468
470
469
471
476
483
493
503
511
521
530
536
538
537
535
534
532
531
536
542
548
551
551
552
550
548
544
542
538
536
534
529
521
513
507
502
499
500
505
514
525
534
539
543
546
549
554
559
565
570
573
569
561
555
552
552
553
559
568
577
590
595
594
591
587
581
575
570
564
560
555
546
535
523
513
508
507
511
515
524
533
540
541
540
537
536
532
530
528
529
531
529
526
522
519
520
522
527
534
543
551
555
553
547
541
537
533
529
526
521
518
512
502
489
484
484
486
492
502
513
523
529
531
531
530
527
525
526
527
529
530
528
524
517
515
517
521
527
534
544
554
559
560
559
558
557
555
550
542
531
521
509
498
491
486
484
484
488
496
506
518
524
528
527
527
526
524
525
526
529
532
532
530
527
525
526
527
531
536
544
551
552
551
545
538
533
530
529
527
526
524
517
510
502
497
495
496
503
512
523
533
539
540
539
536
533
529
526
523
519
517
511
502
493
487
487
490
497
507
519
535
545
549
550
549
545
543
540
535
530
524
512
498
487
480
480
482
489
499
511
523
530
534
533
531
528
526
524
520
516
513
505
495
485
480
477
476
477
480
488
498
503
506
508
509
509
507
505
505
506
506
502
494
485
480
479
481
487
496
507
517
521
523
521
519
516
512
510
507
504
502
495
484
473
467
467
471
478
488
502
515
522
524
522
520
519
518
515
509
504
497
487
475
466
460
461
466
476
488
504
519
527
528
525
522
519
516
513
509
505
503
496
487
476
466
460
458
462
471
482
494
500
501
500
499
498
497
496
495
495
494
489
483
475
469
466
465
471
480
492
506
513
514
511
507
502
497
495
492
494
497
494
487
478
471
465
463
463
469
479
489
495
500
503
503
504
504
505
504
500
498
495
488
482
480
480
484
488
495
504
512
518
520
521
524
523
521
520
519
520
519
511
502
492
482
478
480
485
494
506
517
525
527
527
524
523
520
518
515
512
511
506
498
489
481
480
484
492
502
513
524
529
529
526
525
523
520
520
520
519
519
515
508
499
495
495
497
501
508
515
523
526
526
524
522
519
518
515
512
509
507
501
493
486
483
483
484
487
494
502
510
514
513
511
511
512
513
515
518
520
520
515
506
496
489
489
491
496
504
513
521
524
523
518
514
510
507
506
504
504
504
501
494
488
486
486
487
492
499
511
523
530
534
537
539
539
537
536
532
530
528
523
515
508
504
503
506
513
523
533
543
546
547
544
542
541
539
539
537
537
537
533
527
523
519
516
512
509
510
514
514
507
495
476
455
432
408
383
354
325
296
263
231
200
175
153
134
121
115
116
128
139
153
175
204
241
281
325
376
433
498
549
587
615
636
651
664
678
691
703
711
712
707
699
689
676
664
653
641
629
615
599
585
574
568
567
570
575
583
592
603
609
611
610
607
603
595
587
579
577
577
572
563
553
548
550
554
561
572
585
596
606
612
611
604
598
593
589
581
574
569
564
558
549
542
538
540
544
552
558
568
574
576
575
573
567
567
571
569
569
566
563
559
558
560
561
560
560
562
565
569
570
572
568
564
563
561
556
555
553
543
526
508
498
499
504
510
524
535
544
552
558
557
550
542
535
530
526
527
525
524
516
509
502
494
493
496
500
508
514
520
524
524
523
521
520
515
508
502
498
493
487
482
481
480
475
470
470
475
482
490
494
494
494
493
491
488
488
486
483
482
477
468
462
455
453
452
456
463
472
481
483
483
481
480
479
477
476
473
472
470
464
456
448
442
441
443
448
456
466
475
479
481
479
476
474
472
471
468
465
462
455
446
438
437
440
442
448
459
472
484
491
493
490
489
488
491
496
496
492
486
475
463
449
439
432
430
435
444
455
467
474
479
480
480
473
467
460
456
454
454
446
440
433
421
411
411
420
433
451
469
477
476
477
472
467
466
467
467
464
461
451
440
431
428
428
431
439
444
455
472
477
481
479
476
471
470
472
476
477
476
472
464
459
461
461
455
450
455
468
482
490
492
493
494
494
494
494
494
495
496
492
483
476
471
472
478
490
504
519
534
540
543
541
538
535
532
532
529
527
527
520
512
507
507
514
521
531
543
555
566
574
577
580
580
579
576
571
566
561
558
550
538
529
523
522
525
532
543
556
567
575
579
582
583
584
584
583
583
581
577
566
551
540
530
527
529
536
547
559
571
575
577
575
573
571
568
568
567
566
564
557
548
538
533
531
533
539
548
560
572
577
575
572
569
567
563
561
559
557
554
546
536
526
516
514
514
518
527
538
549
552
552
550
547
543
536
527
522
516
512
501
489
478
472
471
472
477
484
492
502
505
500
492
481
472
463
461
467
475
476
468
452
435
428
425
428
440
453
465
481
489
491
489
491
491
486
485
484
482
477
467
458
450
440
438
443
450
462
477
490
494
495
495
490
483
480
475
469
466
463
460
457
456
461
460
457
456
471
487
500
509
515
515
515
515
518
515
509
510
507
497
485
479
481
485
487
494
506
519
531
538
541
541
537
533
531
531
530
530
529
522
514
506
500
501
507
517
529
541
551
557
560
561
562
558
549
546
545
544
544
538
531
524
519
518
519
524
532
543
554
560
563
564
563
564
563
563
562
562
562
559
551
540
532
528
525
528
535
543
550
551
547
541
535
530
527
529
534
538
541
540
535
529
527
527
530
536
544
554
561
563
563
560
556
551
550
551
551
553
555
549
540
530
524
521
520
523
526
534
542
544
545
544
546
543
542
540
539
539
537
529
523
512
507
508
509
513
518
525
532
534
535
535
535
533
531
530
531
534
537
532
525
517
510
505
499
500
504
511
518
522
524
525
526
526
526
526
525
525
521
515
507
496
488
486
486
490
496
504
512
515
516
515
515
515
515
515
514
510
505
494
481
468
457
453
452
454
461
471
481
484
483
478
473
472
474
476
479
483
488
490
490
487
483
481
480
482
487
494
502
505
504
500
496
495
492
487
478
470
461
447
431
417
408
408
411
418
427
437
443
443
438
435
431
430
432
435
438
443
445
439
432
419
409
403
401
403
407
416
423
428
431
435
440
444
450
455
462
471
478
478
476
471
467
467
467
467
469
475
478
478
475
469
464
460
457
457
457
458
461
457
452
446
443
446
452
463
474
484
495
497
497
491
486
480
474
471
469
468
464
456
449
441
438
441
448
461
476
492
504
505
499
489
477
466
453
441
427
409
389
362
331
300
270
243
220
199
183
172
159
140
119
101
88
83
84
89
102
127
160
198
238
284
338
407
477
541
599
647
683
705
719
724
724
718
707
697
688
680
673
660
645
630
618
610
606
606
608
612
618
618
616
611
607
603
599
596
593
589
584
575
566
558
551
550
550
554
559
567
577
580
583
585
590
595
598
599
597
596
595
589
583
575
571
570
569
572
577
583
585
582
575
568
563
559
556
556
553
554
555
551
548
544
542
543
544
549
556
563
570
572
570
564
556
549
543
540
538
538
537
533
527
522
520
520
523
530
537
547
555
559
560
559
557
556
552
550
546
544
540
533
527
520
518
515
516
523
532
543
555
566
575
576
575
575
573
572
572
569
563
556
550
545
544
547
545
543
540
538
543
547
551
555
558
562
564
564
566
572
578
577
575
571
569
568
568
567
568
571
575
577
579
578
576
574
572
571
568
563
559
550
540
531
527
526
526
530
537
543
548
548
546
542
536
533
530
528
527
526
527
524
519
513
509
506
505
507
511
516
523
524
524
521
516
511
507
504
501
501
501
496
491
485
483
483
485
489
495
502
507
508
507
502
498
494
490
488
486
485
482
474
466
457
451
449
449
452
457
464
469
469
467
464
463
463
464
469
474
480
483
480
474
468
463
460
458
460
463
467
472
474
473
473
472
472
471
470
469
469
467
463
456
450
447
448
450
457
465
474
483
487
490
491
493
496
496
496
493
492
491
486
483
479
478
481
485
491
497
507
515
520
522
522
522
521
523
525
527
529
528
521
512
503
496
493
495
504
516
527
537
542
544
545
546
548
551
555
559
561
560
555
547
540
536
535
537
544
551
559
567
570
569
565
562
560
558
557
553
553
552
549
551
556
563
566
567
568
568
570
572
573
573
572
572
572
571
574
575
575
575
577
582
587
591
594
593
592
587
580
573
568
566
563
562
562
560
560
558
557
557
558
561
564
566
567
567
566
564
561
557
555
555
555
555
556
555
556
556
553
551
551
552
553
553
553
551
550
547
543
540
536
536
536
537
538
539
540
541
542
542
543
545
547
547
547
544
542
537
530
524
519
517
515
514
513
513
513
512
512
512
509
507
505
506
508
509
511
513
516
519
519
521
521
520
516
510
504
499
496
496
494
495
497
499
499
500
505
508
508
504
498
492
486
480
480
482
486
487
489
491
491
493
497
501
501
499
502
503
503
501
497
