358
249
189
192
236
321
445
589
721
748
703
654
617
599
588
582
583
587
582
494
360
249
189
194
235
320
445
590
721
748
700
649
613
595
582
577
578
580
575
489
358
245
187
192
233
317
443
585
719
748
702
652
617
598
586
581
580
582
580
493
359
249
191
192
234
317
444
589
720
747
701
655
620
600
588
580
582
585
581
492
360
248
192
194
236
319
446
592
720
747
700
652
614
595
583
582
582
585
580
494
361
249
190
193
235
318
443
588
722
748
700
653
615
597
587
581
582
584
579
491
358
251
192
193
234
316
444
590
721
749
700
652
617
599
588
582
584
586
583
494
361
252
193
193
235
319
446
592
726
752
701
651
614
596
583
579
578
579
575
487
356
246
189
192
232
319
444
587
717
749
700
652
616
599
585
581
578
581
577
493
354
248
190
193
233
316
442
588
722
752
706
655
617
598
587
579
579
580
578
487
356
248
191
195
236
318
442
588
722
751
704
654
618
600
588
580
582
587
584
497
362
252
192
195
235
317
443
587
719
750
701
653
615
597
585
579
582
583
579
491
355
246
188
192
234
319
441
585
721
751
704
656
619
599
588
581
582
587
583
496
361
252
193
195
237
319
444
590
723
750
701
649
614
598
583
579
581
583
582
493
358
248
189
192
234
319
443
590
723
746
703
656
620
600
588
578
583
587
585
500
364
253
192
193
234
318
444
588
717
748
700
652
615
594
585
579
579
580
575
492
360
248
188
192
234
321
447
591
724
753
704
656
620
597
588
582
581
583
580
494
359
250
190
191
231
315
443
589
720
747
698
648
612
595
583
580
580
583
581
495
364
252
193
194
238
322
445
591
725
753
704
654
620
599
587
580
584
585
581
493
360
253
194
197
238
319
445
592
723
752
704
655
620
603
591
582
582
585
583
493
361
249
191
195
238
319
446
589
720
747
701
656
616
596
587
579
579
582
577
490
357
244
186
191
232
317
442
588
722
750
695
648
614
595
584
578
581
583
580
492
360
251
195
197
238
321
444
588
720
751
705
655
615
596
584
580
581
580
577
487
357
247
189
194
238
321
447
593
724
752
707
657
618
599
589
583
583
585
579
491
362
251
192
195
234
320
444
588
719
747
699
651
616
597
586
578
580
583
577
490
356
249
193
196
233
318
443
588
720
747
702
652
614
597
587
577
581
587
581
491
362
253
193
195
237
317
442
588
721
751
704
655
618
599
582
579
582
585
583
494
360
250
190
192
230
316
441
585
718
750
704
654
616
595
584
580
577
581
580
495
360
252
192
190
235
317
441
583
716
742
694
647
610
591
583
577
576
576
572
486
352
241
183
187
226
312
436
583
716
746
698
651
614
596
585
579
581
583
579
492
365
254
193
198
239
319
445
590
724
751
704
656
620
601
588
580
581
582
579
496
362
250
193
198
240
320
447
592
725
753
707
658
620
602
589
584
585
587
586
498
366
257
195
197
239
323
445
590
723
750
702
651
616
599
588
581
580
583
580
492
364
255
195
196
241
323
445
589
721
751
704
654
616
599
591
582
583
586
583
496
360
253
191
195
236
318
442
589
723
750
700
649
611
595
585
576
581
581
577
490
357
250
190
194
237
320
442
588
721
750
705
655
617
599
590
583
583
583
580
493
358
251
191
196
236
316
443
586
719
749
700
652
613
593
585
579
577
580
579
492
359
250
191
195
237
320
444
589
721
751
698
651
615
598
587
581
582
583
579
497
363
254
194
198
238
318
442
587
720
745
703
653
617
600
587
583
584
588
583
497
362
254
195
195
236
318
444
588
719
747
698
648
610
593
583
579
576
580
577
492
359
252
193
196
237
320
442
584
719
748
702
654
617
599
585
582
584
586
582
496
361
252
192
196
237
318
440
585
719
747
704
657
620
601
590
580
581
583
581
495
363
252
193
197
240
323
447
590
722
751
705
654
620
606
593
585
584
588
586
499
367
256
196
199
240
323
447
590
723
755
709
653
619
603
595
587
589
592
585
502
369
256
195
198
241
323
450
592
724
750
703
654
617
598
592
583
587
591
586
501
364
254
193
195
236
321
445
589
723
747
702
653
617
602
589
579
583
586
583
496
362
253
194
197
237
321
446
591
724
752
704
654
618
601
585
582
583
585
578
496
364
254
193
193
234
316
444
588
721
756
707
654
619
600
590
581
582
584
580
490
362
255
193
196
236
318
442
587
719
745
703
653
614
596
583
579
579
581
579
492
362
253
192
195
235
316
441
588
720
749
702
655
619
600
586
582
582
583
579
495
360
251
190
193
238
318
445
590
720
750
702
652
615
598
589
582
583
582
578
492
358
248
189
195
236
319
440
582
714
748
698
649
614
596
586
580
583
587
582
494
362
248
187
191
234
314
437
583
717
748
702
652
615
596
584
578
579
582
576
489
356
245
189
193
236
317
438
583
718
748
706
654
614
595
584
576
577
581
579
493
359
249
188
190
233
317
440
585
718
750
700
652
615
596
582
578
578
580
577
496
360
252
190
191
233
316
440
584
716
747
697
651
613
595
583
577
581
582
579
495
362
251
189
193
236
319
443
587
719
750
704
655
619
596
585
579
579
583
582
494
362
251
194
194
236
318
445
590
723
752
706
658
623
603
590
585
582
585
581
499
365
255
195
202
242
318
443
588
722
751
705
655
619
602
592
585
585
587
584
500
366
253
193
195
238
320
445
591
723
748
703
651
614
599
584
580
585
585
583
496
363
254
195
195
239
322
444
590
724
753
706
655
617
598
591
584
583
584
583
494
364
254
192
192
237
320
442
584
719
750
704
655
619
602
591
587
584
585
583
500
365
257
196
198
237
321
445
588
719
749
702
654
616
599
589
579
580
583
580
494
357
249
190
190
233
314
437
581
718
749
704
654
615
595
587
583
583
584
580
495
361
248
189
195
235
317
441
587
716
751
702
651
614
595
584
577
581
581
579
497
364
253
194
193
235
315
438
583
716
748
703
652
614
592
585
578
578
581
579
496
360
250
191
193
235
312
436
580
713
745
700
653
615
595
583
575
577
582
577
495
361
249
190
192
234
314
439
583
716
747
703
652
615
595
585
580
580
584
582
499
361
253
193
195
236
317
438
581
716
748
704
656
620
600
587
577
580
584
581
499
368
256
195
196
240
318
441
587
719
750
704
655
620
599
587
577
582
584
582
500
368
256
197
198
237
318
441
583
716
748
700
654
619
601
590
582
582
585
581
499
365
256
193
193
233
315
439
585
718
749
703
655
618
599
587
581
581
580
577
497
364
254
192
189
235
313
443
587
719
750
707
658
620
604
593
585
588
590
586
503
368
256
194
195
236
312
437
583
715
744
703
654
617
600
591
581
583
588
582
500
367
256
195
194
232
318
441
587
718
750
700
654
617
597
587
581
581
581
578
494
364
255
190
190
231
312
436
579
712
744
697
651
615
596
587
578
581
583
581
499
368
258
198
197
238
318
438
579
714
744
697
647
611
593
585
578
577
581
579
497
363
254
195
196
235
312
435
577
710
744
699
649
610
591
582
574
575
577
575
493
363
257
197
195
235
311
432
572
703
740
691
647
612
592
585
576
580
580
576
497
368
261
199
195
235
310
430
569
697
733
689
642
606
588
579
573
573
575
572
497
369
261
201
202
242
316
436
574
704
738
694
651
616
597
587
580
583
583
581
503
375
269
209
204
243
317
434
575
703
738
694
652
617
597
589
583
584
588
586
507
375
269
209
208
244
318
436
573
705
742
700
652
617
599
589
583
583
585
585
505
380
276
213
210
244
319
436
571
702
738
698
651
618
598
589
579
585
588
588
508
384
273
211
210
243
316
428
565
694
729
690
644
611
592
583
580
580
583
583
507
384
278
216
210
244
312
430
565
692
729
692
647
612
595
586
579
581
584
585
514
390
281
219
215
248
320
430
563
691
726
689
643
612
594
585
579
577
582
582
511
393
288
227
221
254
323
429
558
683
719
684
643
612
596
587
579
582
583
583
515
399
298
238
228
259
321
428
553
674
710
680
640
608
591
582
576
577
579
577
516
406
307
247
239
264
328
428
547
662
704
673
636
608
591
582
575
576
578
576
516
409
316
256
244
271
327
423
537
649
688
658
620
592
576
572
568
567
570
568
514
415
325
268
252
280
333
418
524
630
670
646
615
590
575
565
564
567
566
566
519
428
344
290
275
289
336
416
512
606
646
632
604
579
564
553
554
556
558
557
518
440
364
314
300
309
348
412
493
579
622
612
591
569
558
551
548
550
551
551
527
467
405
358
338
343
367
417
478
545
583
584
571
556
547
540
538
539
541
541
533
499
458
422
399
396
402
422
454
494
535
548
549
544
538
537
529
532
535
536
553
559
535
508
480
457
443
424
416
423
456
492
507
512
512
515
513
515
513
517
566
616
628
612
573
535
487
424
367
332
369
423
455
473
480
484
487
484
484
487
583
679
730
729
682
622
540
429
316
232
268
347
399
433
450
460
463
465
463
470
604
761
851
871
815
730
604
438
260
121
154
264
343
391
409
426
431
430
423
431
619
847
989
1022
964
854
685
450
202
2
24
163
268
332
362
384
394
395
392
403
642
941
1022
1022
1022
974
755
451
125
0
0
48
184
271
310
340
353
354
349
365
660
1020
1022
1022
1022
1022
838
462
60
0
0
0
115
223
271
310
325
327
324
342
683
1022
1022
1022
1022
1022
912
478
13
0
0
0
58
180
240
286
305
309
305
323
702
1022
1022
1022
1022
1022
962
483
0
0
0
0
27
156
218
266
293
302
301
322
721
1022
1022
1022
1022
1022
999
480
0
0
0
0
0
143
210
260
286
295
295
315
734
1022
1022
1022
1022
1022
1019
483
0
0
0
0
0
132
194
245
271
284
286
310
729
1022
1022
1022
1022
1022
1021
480
0
0
0
0
0
117
187
239
269
278
280
304
732
1022
1022
1022
1022
1022
1021
473
0
0
0
0
0
110
179
228
262
274
273
294
729
1022
1022
1022
1022
1022
1021
474
0
0
0
0
0
101
178
233
259
265
268
291
726
1022
1022
1022
1022
1022
1022
478
0
0
0
0
0
102
178
234
260
268
269
291
727
1022
1022
1022
1022
1022
1022
475
0
0
0
0
0
95
175
231
258
267
267
292
734
1022
1022
1022
1022
1022
1022
480
0
0
0
0
0
94
172
227
256
267
267
293
735
1022
1022
1022
1022
1022
1022
476
0
0
0
0
0
103
177
230
261
272
271
292
733
1022
1022
1022
1022
1022
1022
472
0
0
0
0
0
92
174
230
259
266
267
290
732
1022
1022
1022
1022
1022
1022
483
0
0
0
0
0
97
177
234
263
275
273
295
727
1022
1022
1022
1022
1022
1021
469
0
0
0
0
0
88
164
223
254
264
266
291
726
1022
1022
1022
1022
1022
1022
466
0
0
0
0
0
84
156
208
240
250
252
280
712
1022
1022
1022
1022
1022
1020
457
0
0
0
0
0
80
157
214
246
255
258
280
708
1022
1022
1022
1022
1022
1021
463
0
0
0
0
0
83
160
215
245
253
254
276
704
1022
1022
1022
1022
1022
1020
464
0
0
0
0
0
89
166
219
245
256
255
278
697
1022
1022
1022
1022
1022
1020
466
0
0
0
0
0
94
169
224
252
260
262
284
699
1022
1022
1022
1022
1022
1019
476
0
0
0
0
0
102
173
227
257
271
274
299
705
1022
1022
1022
1022
1022
1017
480
0
0
0
0
0
111
183
232
268
276
278
298
700
1022
1022
1022
1022
1022
1014
486
0
0
0
0
0
129
198
243
276
287
290
314
702
1022
1022
1022
1022
1022
988
490
0
0
0
0
0
142
210
263
289
295
300
320
696
1022
1022
1022
1022
1022
967
496
3
0
0
0
23
150
222
267
298
307
309
333
691
1022
1022
1022
1022
1022
914
418
0
0
167
473
582
613
620
640
642
662
689
736
735
302
0
0
0
0
0
207
772
1022
1022
1022
1022
961
864
808
771
767
769
769
486
0
0
0
0
0
0
416
989
1022
1022
1022
1022
965
880
828
801
798
802
793
455
0
0
0
0
0
0
511
1022
1022
1022
1022
1022
930
841
787
753
749
754
749
400
0
0
0
0
0
0
488
1017
1022
1022
1022
1017
836
758
710
685
689
701
698
348
0
0
0
0
0
0
466
999
1022
1022
1022
998
836
764
719
695
698
703
691
339
0
0
0
0
0
0
494
1019
1022
1022
1022
1020
851
771
721
695
691
699
689
325
0
0
0
0
0
0
499
1018
1022
1022
1022
982
828
751
701
675
673
681
669
307
0
0
0
0
0
3
520
1020
1022
1022
1022
979
833
750
699
668
660
658
637
279
0
0
0
0
0
0
507
1015
1022
1022
1022
958
807
725
671
645
638
639
624
268
0
0
0
0
0
40
520
1014
1022
1022
1022
942
789
715
668
638
632
636
627
273
0
0
0
0
0
0
507
1013
1022
1022
1022
968
818
743
698
667
656
658
644
292
0
0
0
0
0
31
515
1016
1022
1022
1022
974
830
761
714
691
685
688
672
311
0
0
0
0
0
41
529
1020
1022
1023
1022
976
827
751
702
678
674
678
664
304
0
0
0
0
0
51
540
1022
1022
1022
1022
987
836
760
712
684
679
681
667
302
0
0
0
0
0
49
543
1022
1022
1022
1022
995
838
762
713
684
680
684
671
300
0
0
0
0
0
40
541
1022
1023
1022
1022
989
834
764
719
693
691
696
681
304
0
0
0
0
0
31
542
1022
1022
1022
1022
1004
842
765
716
691
689
696
685
299
0
0
0
0
0
0
531
1022
1023
1023
1022
1018
848
769
719
697
698
707
696
302
0
0
0
0
0
0
529
1022
1022
1022
1022
1021
852
773
720
699
699
707
697
299
0
0
0
0
0
0
530
1022
1023
1022
1022
1021
851
766
714
689
692
703
694
299
0
0
0
0
0
43
590
1022
1022
1022
1022
1022
931
849
799
774
770
776
766
369
0
0
0
0
0
85
614
1022
1022
1022
1022
1022
936
852
803
774
770
774
756
366
0
0
0
0
0
75
589
1022
1022
1023
1022
1022
862
776
719
686
678
675
657
284
0
0
0
0
0
0
497
1007
1022
1022
1022
930
781
710
659
628
625
627
614
254
0
0
0
0
0
0
480
988
1022
1022
1022
931
785
714
669
647
649
656
645
279
0
0
0
0
0
22
543
1022
1023
1022
1022
1021
862
784
740
717
715
722
712
355
0
0
0
0
0
64
512
984
1022
1022
1022
857
702
617
558
532
543
563
574
240
0
0
0
0
0
5
521
1020
1022
1022
1022
989
841
763
719
688
678
678
664
310
0
0
0
0
0
26
513
1011
1022
1022
1022
950
805
732
689
662
658
663
652
308
0
0
0
0
0
52
536
1020
1022
1023
1022
1020
863
786
737
713
713
716
708
359
0
0
0
0
0
91
568
1022
1022
1022
1022
1022
876
802
753
725
722
725
716
367
0
0
0
0
0
74
553
1022
1022
1022
1022
1020
860
787
739
709
706
707
694
345
0
0
0
0
0
0
483
973
1022
1022
1022
908
762
688
643
606
588
577
551
191
0
0
0
0
0
0
390
895
1022
1022
1022
900
755
674
626
598
591
600
588
238
0
0
0
0
0
0
396
874
1022
1022
1022
815
683
613
577
553
555
568
567
236
0
0
0
0
0
44
511
1000
1022
1022
1022
944
807
743
708
691
700
711
712
377
0
0
0
0
0
175
637
1022
1022
1023
1022
1022
922
853
807
782
778
777
763
416
0
0
0
0
0
160
618
1022
1022
1023
1022
1022
887
822
780
753
750
754
741
397
0
0
0
0
0
145
613
1022
1022
1022
1022
1022
894
819
773
749
744
747
732
386
0
0
0
0
0
152
623
1022
1022
1022
1022
1022
900
831
786
758
753
755
742
388
0
0
0
0
0
147
625
1022
1022
1022
1022
1022
892
815
768
744
742
745
733
368
0
0
0
0
0
98
585
1022
1022
1022
1022
1021
863
787
737
707
698
697
677
286
0
0
0
0
0
0
496
1021
1022
1022
1022
985
834
769
739
729
743
765
764
387
0
0
0
0
0
122
638
1022
1022
1022
1022
1022
979
900
846
817
814
816
796
414
0
0
0
0
0
107
594
1022
1022
1022
1022
939
763
664
600
554
534
524
506
141
0
0
0
0
0
0
396
881
1023
1022
971
728
551
443
369
322
295
280
254
0
0
0
0
0
0
0
239
731
1022
1022
888
691
574
523
502
499
526
563
576
255
0
0
0
0
0
115
585
1022
1023
1022
1022
1022
949
882
838
818
824
840
834
504
54
0
0
0
0
332
788
1022
1022
1023
1022
1022
1022
993
943
911
896
887
868
531
79
0
0
0
0
291
717
1022
1022
1022
1022
1018
860
785
732
695
679
673
653
311
0
0
0
0
0
0
448
907
1022
1022
1021
811
680
622
579
560
561
567
559
227
0
0
0
0
0
43
504
985
1023
1022
1022
957
833
780
745
728
733
746
726
392
0
0
0
0
0
272
744
1022
1022
1023
1022
1022
1022
964
917
899
899
900
880
508
6
0
0
0
0
127
581
1022
1023
1022
1022
925
775
701
657
632
635
641
630
260
0
0
0
0
0
0
478
985
1022
1023
1022
835
670
590
540
509
504
513
508
146
0
0
0
0
0
0
507
1021
1023
1022
1022
1020
863
790
746
726
736
754
758
415
0
0
0
0
0
211
680
1022
1022
1022
1022
961
788
688
613
559
529
508
472
105
0
0
0
0
0
0
235
715
1022
1022
891
706
591
551
530
524
537
552
553
222
0
0
0
0
0
54
521
1005
1022
1022
1022
1022
914
869
845
841
864
891
903
588
157
0
0
0
159
496
958
1022
1022
1022
1022
1022
1022
1022
1022
1022
1022
1022
1022
743
272
0
0
0
115
421
852
1022
1022
1022
1022
1022
957
867
800
749
720
693
656
296
0
0
0
0
0
0
391
845
1022
1022
928
706
554
470
417
384
378
377
356
14
0
0
0
0
0
0
264
756
1022
1022
947
761
647
606
592
599
635
677
698
388
0
0
0
0
0
287
772
1022
1022
1022
1022
1022
1007
913
855
809
780
751
702
309
0
0
0
0
0
135
640
1022
1022
1022
1022
1022
888
793
724
680
676
686
674
279
0
0
0
0
0
0
546
1022
1023
1022
1022
1022
935
881
863
883
916
944
944
544
0
0
0
0
0
270
834
1022
1022
1022
1022
1022
1022
993
934
900
895
884
837
440
0
0
0
0
0
359
902
1022
1023
1023
1022
1022
1022
912
817
744
697
677
654
233
0
0
0
0
0
0
529
1022
1022
1022
1022
1022
901
818
770
740
731
725
705
268
0
0
0
0
0
0
357
924
1022
1022
1022
787
616
533
488
468
474
487
479
67
0
0
0
0
0
0
355
967
1023
1023
1022
907
733
647
597
570
573
585
576
153
0
0
0
0
0
0
380
983
1022
1022
1022
912
735
651
595
566
568
576
571
148
0
0
0
0
0
0
412
1016
1022
1022
1022
972
803
720
671
648
654
663
656
231
0
0
0
0
0
0
469
1022
1022
1023
1022
1021
835
749
695
668
675
685
679
255
0
0
0
0
0
0
501
1022
1022
1022
1022
1022
858
776
724
696
700
712
704
280
0
0
0
0
0
0
526
1022
1022
1022
1022
1022
878
796
748
718
721
731
726
299
0
0
0
0
0
0
534
1022
1022
1022
1022
1022
893
808
757
730
733
739
728
302
0
0
0
0
0
0
538
1022
1022
1022
1022
1022
890
801
747
717
722
729
721
295
0
0
0
0
0
0
534
1022
1022
1023
1022
1022
881
788
740
710
715
727
717
292
0
0
0
0
0
0
518
1022
1022
1022
1022
1022
879
795
743
713
713
717
706
279
0
0
0
0
0
0
522
1022
1022
1022
1022
1022
877
791
742
712
716
724
720
296
0
0
0
0
0
0
527
1022
1023
1023
1022
1022
881
793
743
716
719
730
723
298
0
0
0
0
0
0
527
1022
1022
1023
1022
1022
891
802
749
720
721
731
724
304
0
0
0
0
0
0
539
1022
1022
1022
1022
1022
911
841
809
802
829
862
880
490
0
0
0
0
0
203
748
1022
1022
1023
1022
1022
1017
906
841
802
794
788
775
383
0
0
0
0
0
61
580
1022
1023
1022
1022
1003
834
757
715
686
690
699
698
336
0
0
0
0
0
77
569
1022
1022
1023
1022
965
801
717
662
626
617
620
614
239
0
0
0
0
0
0
263
795
1022
1022
923
654
477
391
335
307
312
326
344
0
0
0
0
0
0
0
483
1022
1022
1023
1022
1022
898
825
781
760
766
772
766
395
0
0
0
0
0
66
559
1022
1022
1022
1022
968
809
736
688
658
657
659
651
279
0
0
0
0
0
0
481
1010
1022
1023
1022
947
792
716
670
641
645
654
650
281
0
0
0
0
0
0
517
1021
1023
1023
1022
985
830
753
702
675
678
684
679
313
0
0
0
0
0
1
537
1022
1022
1023
1022
1022
878
805
760
736
740
752
747
383
0
0
0
0
0
99
592
1022
1023
1022
1022
969
791
688
615
561
536
519
494
129
0
0
0
0
0
0
344
856
1022
1022
1022
817
665
593
557
542
537
538
527
176
0
0
0
0
0
0
335
829
1022
1022
979
760
627
569
537
521
529
548
553
212
0
0
0
0
0
0
497
1011
1022
1022
1022
982
839
773
734
711
708
710
704
361
0
0
0
0
0
168
660
1022
1022
1022
1022
1022
1022
992
960
936
938
939
923
570
78
0
0
0
0
275
748
1022
1022
1023
1022
1022
1022
954
899
859
846
840
826
472
0
0
0
0
0
160
620
1022
1023
1022
1022
1011
839
756
704
681
684
695
695
355
0
0
0
0
0
101
583
1022
1022
1022
1022
1022
889
818
772
750
750
756
748
399
0
0
0
0
0
76
561
1022
1022
1023
1022
1022
902
830
785
761
764
774
771
410
0
0
0
0
0
9
519
1021
1022
1023
1022
987
818
716
668
664
691
716
716
362
0
0
0
0
0
95
632
1022
1022
1022
1022
1022
1022
957
919
896
894
904
900
508
0
0
0
0
0
261
786
1022
1022
1022
1022
1022
991
885
815
766
748
738
719
328
0
0
0
0
0
0
439
984
1022
1022
1022
918
760
691
657
640
649
660
657
271
0
0
0
0
0
0
300
809
1022
1022
926
684
524
444
394
361
345
327
285
0
0
0
0
0
0
0
73
600
1022
1022
841
643
518
469
447
440
459
479
486
160
0
0
0
0
0
1
532
1022
1022
1023
1022
1022
1022
1022
1016
1012
1022
1022
1022
774
328
31
0
77
309
631
1022
1022
1022
1022
1022
1022
1022
1022
1022
1022
1022
1022
1022
737
273
0
0
0
95
386
816
1022
1022
1022
1022
1022
984
902
849
803
780
764
739
395
0
0
0
0
0
45
493
960
1022
1023
1022
868
721
637
584
550
539
534
522
188
0
0
0
0
0
0
359
846
1022
1022
1022
819
688
631
605
596
607
623
630
311
0
0
0
0
0
32
504
1008
1022
1022
1022
934
755
644
567
572
625
675
688
346
0
0
0
0
0
67
575
1022
1022
1022
1022
1022
923
846
794
757
743
733
711
337
0
0
0
0
0
0
496
1005
1022
1022
1022
924
762
680
631
598
598
604
598
244
0
0
0
0
0
0
504
1022
1022
1023
1022
1022
912
842
804
784
791
798
794
436
0
0
0
0
0
0
435
896
1023
1022
873
591
386
257
168
107
81
73
61
0
0
0
0
0
0
0
0
519
956
992
755
566
454
417
412
427
466
511
544
257
0
0
0
0
0
156
632
1022
1022
1022
1022
1022
1022
1022
1022
1022
1022
1022
1022
840
414
129
38
157
381
690
1022
1022
1022
1023
1022
1022
1022
1022
1022
1022
1022
1022
1022
830
351
9
0
0
131
416
836
1022
1023
1022
1022
1022
954
860
799
750
725
707
683
347
0
0
0
0
0
0
422
888
1022
1022
1022
824
683
610
568
542
537
533
523
186
0
0
0
0
0
0
338
830
1022
1022
1021
797
651
576
533
510
539
597
643
339
0
0
0
0
0
82
573
1022
1023
1022
1022
1022
935
868
831
799
797
800
799
439
0
0
0
0
0
90
603
1022
1022
1022
1022
1022
915
830
786
757
761
764
747
356
0
0
0
0
0
0
556
1022
1022
1022
1022
1022
933
855
820
810
839
883
922
578
38
0
0
0
0
206
760
1022
1022
1022
1022
1022
1022
1022
1022
1022
1022
1022
972
548
0
0
0
0
0
0
513
1022
1022
1022
1022
982
790
677
604
560
548
544
531
149
0
0
0
0
0
0
401
991
1022
1022
1022
1022
952
903
881
868
883
892
882
494
0
0
0
0
0
0
503
1019
1023
1022
1022
903
724
630
559
505
474
446
412
39
0
0
0
0
0
0
303
853
1022
1022
1022
857
719
656
626
611
620
631
626
275
0
0
0
0
0
0
398
909
1022
1022
1022
843
690
609
564
539
545
556
557
218
0
0
0
0
0
0
464
977
1022
1022
1022
943
792
712
666
634
631
633
624
288
0
0
0
0
0
22
516
1016
1022
1022
1022
975
820
738
684
643
630
626
615
272
0
0
0
0
0
0
433
933
1022
1022
1022
869
716
641
601
575
579
588
595
260
0
0
0
0
0
0
472
987
1022
1022
1022
959
806
727
678
644
641
643
641
288
0
0
0
0
0
0
427
954
1022
1022
1022
868
694
602
545
508
502
500
491
116
0
0
0
0
0
0
199
765
1022
1022
1022
992
853
800
779
777
795
811
823
465
0
0
0
0
0
171
732
1022
1022
1022
1022
1022
1022
1021
958
919
932
945
944
545
0
0
0
0
0
105
649
1022
1023
1022
1022
1022
1022
944
900
877
872
867
847
447
0
0
0
0
0
0
546
1022
1022
1022
1022
1022
858
767
708
670
669
684
702
352
0
0
0
0
0
179
734
1022
1022
1023
1022
1022
1022
951
881
832
819
811
795
417
0
0
0
0
0
0
500
1009
1022
1022
1022
844
659
550
480
429
417
404
384
34
0
0
0
0
0
0
213
715
1022
1022
842
594
417
311
248
207
194
200
195
0
0
0
0
0
0
0
211
780
1022
1022
1022
800
641
568
548
541
558
580
598
299
0
0
0
0
0
128
583
1022
1022
1022
1022
995
858
802
775
757
768
781
782
464
0
0
0
0
0
144
612
1022
1023
1022
1022
1022
903
829
780
743
736
733
730
409
0
0
0
0
0
144
617
1022
1022
1022
1022
1022
921
839
787
749
740
738
731
400
0
0
0
0
0
94
565
1022
1022
1022
1022
1022
879
797
747
713
707
708
702
367
0
0
0
0
0
6
509
1011
1022
1022
1022
970
817
739
700
675
679
691
699
359
0
0
0
0
0
0
518
1021
1022
1022
1022
957
777
673
608
560
540
523
494
166
0
0
0
0
0
83
643
1022
1022
1022
1022
1022
1022
972
934
919
931
945
943
573
11
0
0
0
0
91
607
1022
1022
1022
1022
1022
905
817
767
749
772
795
795
452
0
0
0
0
0
239
779
1022
1023
1022
1022
1022
1022
1022
1022
972
939
931
933
552
0
0
0
0
0
117
667
1022
1022
1022
1022
1022
1021
924
858
798
763
730
694
292
0
0
0
0
0
0
374
952
1022
1022
1022
900
720
634
589
563
573
590
601
230
0
0
0
0
0
0
444
1020
1023
1022
1022
1022
848
757
709
686
704
740
770
435
0
0
0
0
0
236
788
1022
1022
1023
1022
1022
1022
974
908
866
856
852
848
488
0
0
0
0
0
102
615
1022
1022
1022
1022
1022
904
813
760
726
718
717
709
376
0
0
0
0
0
42
505
979
1022
1022
1022
801
608
490
415
360
340
334
325
0
0
0
0
0
0
0
140
666
1022
1022
881
635
468
372
324
295
304
319
326
0
0
0
0
0
0
0
364
929
1022
1022
1022
952
777
674
615
580
581
593
600
263
0
0
0
0
0
0
433
966
1023
1022
1022
951
785
698
648
625
635
645
643
308
0
0
0
0
0
0
515
1022
1023
1022
1022
1022
896
812
757
720
709
713
707
371
0
0
0
0
0
0
515
1020
1022
1022
1022
1020
846
765
719
684
680
682
678
335
0
0
0
0
0
0
453
981
1022
1022
1022
982
827
752
717
695
698
708
713
375
0
0
0
0
0
0
513
1022
1022
1022
1022
1022
876
789
745
720
725
734
737
395
0
0
0
0
0
0
547
1022
1022
1022
1022
1022
939
848
793
758
756
760
763
423
0
0
0
0
0
105
620
1022
1022
1022
1022
1022
986
910
871
849
857
867
867
524
0
0
0
0
0
0
432
925
1022
1022
1022
830
655
560
490
433
404
368
328
0
0
0
0
0
0
0
0
479
933
998
742
527
386
322
291
271
279
292
304
14
0
0
0
0
0
0
473
1013
1022
1022
1022
1022
1000
934
914
902
920
942
957
660
191
0
0
0
124
456
941
1022
1022
1022
1022
1022
1022
1022
1022
1022
1022
1022
1022
833
333
0
0
0
136
441
899
1022
1022
1022
1022
1022
1022
1022
968
917
892
870
849
523
18
0
0
0
0
95
545
1014
1022
1022
1022
961
798
714
661
624
616
611
606
291
0
0
0
0
0
0
374
871
1022
1022
1022
852
698
622
579
548
550
563
574
271
0
0
0
0
0
0
437
950
1022
1022
1022
981
873
830
799
786
811
833
841
507
0
0
0
0
0
83
603
1022
1022
1022
1022
1022
965
864
805
772
770
775
782
438
0
0
0
0
0
55
606
1022
1022
1022
1022
1022
948
846
797
764
763
755
743
398
0
0
0
0
0
0
439
991
1022
1022
1022
1014
832
748
704
682
692
710
724
395
0
0
0
0
0
215
803
1022
1022
1022
1022
1022
1022
1022
1022
1022
1022
1003
950
561
0
0
0
0
0
0
0
248
597
563
219
0
0
0
0
0
0
0
0
0
0
0
0
0
0
0
0
249
724
823
611
439
347
340
372
415
489
561
624
383
0
0
0
0
0
287
772
1022
1022
1022
1022
1022
1022
1022
1022
1022
1022
1022
1022
944
509
210
100
214
447
755
1022
1022
1022
1022
1022
1022
1022
1022
1022
1022
1022
1022
1022
915
395
17
0
0
87
344
760
1022
1022
1022
1022
1022
894
796
733
684
668
660
651
344
0
0
0
0
0
0
371
847
1022
1022
1022
798
636
551
495
448
431
418
405
93
0
0
0
0
0
0
153
661
1022
1022
931
694
523
419
355
307
310
323
340
100
0
0
0
0
0
137
652
1022
1022
1022
1022
1022
1022
947
881
825
794
765
732
384
0
0
0
0
0
0
328
849
1022
1022
1022
871
711
632
592
566
580
597
611
313
0
0
0
0
0
0
545
1022
1022
1022
1022
1022
1022
964
928
892
887
881
874
541
0
0
0
0
0
75
587
1022
1022
1022
1022
1022
882
766
694
638
622
611
607
283
0
0
0
0
0
0
359
900
1022
1022
1022
904
738
653
624
612
637
669
696
394
0
0
0
0
0
89
615
1022
1022
1022
1022
1022
1022
933
880
840
834
831
824
491
0
0
0
0
0
0
516
1022
1022
1022
1022
1022
882
788
736
695
691
697
707
379
0
0
0
0
0
0
465
1019
1022
1022
1022
1022
892
807
767
746
763
777
787
460
0
0
0
0
0
15
583
1022
1023
1022
1022
1022
983
894
846
803
795
795
793
466
0
0
0
0
0
0
526
1022
1022
1022
1022
1022
936
827
761
712
711
710
706
377
0
0
0
0
0
0
457
1019
1022
1022
1022
1022
1022
921
851
803
817
814
803
454
0
0
0
0
0
0
506
1022
1022
1022
1022
1022
912
810
758
723
717
713
707
362
0
0
0
0
0
0
381
961
1023
1022
1022
1013
816
723
675
643
652
659
664
335
0
0
0
0
0
0
393
976
1022
1022
1022
1022
856
776
753
741
768
800
829
522
0
0
0
0
0
49
587
1022
1022
1022
1022
1022
947
846
790
745
742
742
739
413
0
0
0
0
0
0
447
1000
1022
1022
1022
1022
864
769
715
672
659
653
647
322
0
0
0
0
0
0
338
863
1022
1022
1022
863
687
593
544
511
513
519
519
227
0
0
0
0
0
0
312
831
1022
1022
1022
885
729
649
609
575
570
570
568
281
0
0
0
0
0
0
365
870
1022
1022
1022
901
743
656
612
575
576
583
585
310
0
0
0
0
0
0
415
917
1022
1022
1022
950
789
707
660
625
624
628
630
348
0
0
0
0
0
0
431
935
1022
1022
1022
967
804
719
673
638
635
636
640
359
0
0
0
0
0
0
428
943
1022
1022
1022
980
816
727
679
646
647
652
657
368
0
0
0
0
0
0
422
950
1022
1022
1022
990
810
713
656
615
608
605
604
295
0
0
0
0
0
0
280
819
1022
1022
1022
824
631
522
463
414
412
472
564
321
0
0
0
0
0
13
587
1022
1022
1023
1022
1022
1022
976
934
903
908
917
933
633
60
0
0
0
0
141
688
1022
1022
1022
1022
1022
1022
1005
962
934
943
940
941
603
0
0
0
0
0
0
421
1000
1022
1022
1022
1022
881
778
721
673
667
669
671
355
0
0
0
0
0
0
398
990
1022
1022
1022
1022
847
744
690
646
641
647
655
334
0
0
0
0
0
0
356
944
1022
1022
1022
1022
832
735
684
651
661
673
685
368
0
0
0
0
0
0
420
1012
1022
1022
1022
1022
910
805
748
708
706
709
713
391
0
0
0
0
0
0
405
1001
1022
1022
1022
1022
893
787
733
697
700
705
716
400
0
0
0
0
0
0
443
1021
1022
1022
1022
1022
945
845
796
756
762
766
773
451
0
0
0
0
0
0
463
1022
1022
1022
1022
1022
955
854
803
763
765
773
775
460
0
0
0
0
0
0
467
1022
1022
1022
1022
1022
951
852
801
762
763
766
768
452
0
0
0
0
0
0
466
1022
1022
1022
1022
1022
956
850
796
755
758
766
770
450
0
0
0
0
0
0
462
1022
1022
1022
1022
1022
953
852
801
759
758
761
767
447
0
0
0
0
0
0
441
1020
1022
1022
1022
1022
936
832
777
738
741
749
758
438
0
0
0
0
0
0
430
1019
1022
1022
1022
1022
930
828
775
731
731
738
746
426
0
0
0
0
0
0
428
1019
1022
1022
1022
1022
924
819
770
724
728
736
743
429
0
0
0
0
0
0
425
1017
1022
1022
1022
1022
928
821
767
726
728
730
739
427
0
0
0
0
0
0
420
1017
1022
1022
1022
1022
927
823
769
726
728
734
738
428
0
0
0
0
0
0
425
1016
1022
1022
1022
1022
920
815
766
725
728
733
741
426
0
0
0
0
0
0
417
1011
1022
1022
1022
1022
925
819
765
725
725
732
742
435
0
0
0
0
0
0
413
1013
1022
1022
1022
1022
927
820
765
725
728
734
743
434
0
0
0
0
0
0
416
1015
1022
1022
1022
1022
927
817
760
723
722
731
740
428
0
0
0
0
0
0
412
1012
1022
1022
1022
1022
923
819
768
724
728
733
740
433
0
0
0
0
0
0
411
1008
1022
1022
1022
1022
919
822
774
730
731
736
743
438
0
0
0
0
0
0
412
1010
1022
1022
1022
1022
927
819
771
732
733
739
743
438
0
0
0
0
0
0
416
1012
1022
1022
1022
1022
930
824
768
727
730
737
744
443
0
0
0
0
0
0
413
1012
1022
1023
1022
1022
930
822
770
728
729
733
743
443
0
0
0
0
0
0
417
1014
1022
1022
1022
1022
925
823
773
727
728
735
742
439
0
0
0
0
0
0
410
1010
1022
1022
1022
1022
926
821
773
728
726
730
741
440
0
0
0
0
0
0
398
1003
1022
1022
1022
1022
918
811
759
716
719
725
734
434
0
0
0
0
0
0
393
998
1022
1022
1022
1022
921
814
757
717
720
726
734
438
0
0
0
0
0
0
393
996
1022
1022
1022
1022
925
816
759
716
718
725
732
433
0
0
0
0
0
0
398
998
1022
1022
1022
1022
920
814
762
720
723
727
736
438
0
0
0
0
0
0
392
997
1022
1022
1023
1022
922
814
761
718
722
728
734
444
0
0
0
0
0
0
391
996
1022
1022
1022
1022
920
814
760
719
720
728
736
439
0
0
0
0
0
0
393
996
1022
1022
1022
1022
929
818
763
722
724
728
735
448
0
0
0
0
0
0
396
1001
1022
1022
1022
1022
932
822
764
723
726
731
736
448
0
0
0
0
0
0
396
1000
1022
1022
1022
1022
922
812
767
724
722
726
736
447
0
0
0
0
0
0
396
999
1022
1022
1022
1022
922
822
774
729
728
728
738
449
0
0
0
0
0
0
396
992
1022
1022
1022
1022
928
819
771
724
723
727
733
449
0
0
0
0
0
0
391
995
1022
1022
1022
1022
926
817
765
720
723
731
739
457
0
0
0
0
0
0
395
997
1022
1022
1022
1022
931
821
768
721
724
731
737
454
0
0
0
0
0
0
391
988
1022
1023
1022
1022
926
817
765
717
720
729
737
452
0
0
0
0
0
0
385
984
1022
1022
1022
1022
922
826
782
734
731
731
733
455
0
0
0
0
0
0
388
988
1022
1022
1022
1022
923
820
769
724
724
729
736
460
0
0
0
0
0
0
382
981
1022
1022
1022
1022
926
816
768
723
725
728
739
460
0
0
0
0
0
0
384
984
1022
1022
1022
1022
931
820
767
722
725
728
738
461
0
0
0
0
0
0
380
980
1022
1022
1022
1022
921
820
772
724
728
728
737
463
0
0
0
0
0
0
380
981
1022
1023
1022
1022
923
812
764
718
719
723
735
461
0
0
0
0
0
0
380
980
1022
1022
1022
1022
931
819
767
724
724
731
743
467
0
0
0
0
0
0
381
980
1022
1023
1022
1022
935
824
766
722
724
728
737
465
0
0
0
0
0
0
375
978
1022
1022
1022
1022
931
820
764
720
721
724
730
460
0
0
0
0
0
0
370
972
1022
1022
1022
1022
930
824
775
728
729
732
741
471
0
0
0
0
0
0
367
972
1022
1022
1022
1022
927
822
768
725
723
729
736
469
0
0
0
0
0
0
374
973
1022
1022
1022
1022
932
819
766
720
721
726
736
467
0
0
0
0
0
0
368
968
1022
1022
1022
1022
930
819
765
717
716
721
734
469
0
0
0
0
0
0
364
967
1022
1022
1022
1022
932
817
759
712
715
720
731
461
0
0
0
0
0
0
364
967
1022
1022
1022
1022
932
820
762
717
718
719
728
465
0
0
0
0
0
0
366
968
1022
1023
1022
1022
934
820
765
721
721
726
737
475
0
0
0
0
0
0
362
970
1022
1022
1022
1022
932
821
770
722
723
727
735
473
0
0
0
0
0
0
363
967
1022
1022
1022
1022
935
824
769
722
722
727
737
475
0
0
0
0
0
0
367
967
1022
1022
1022
1022
935
820
769
728
728
728
737
478
0
0
0
0
0
0
368
967
1022
1023
1022
1022
942
823
769
723
724
733
743
486
0
0
0
0
0
0
369
969
1022
1022
1022
1022
941
825
776
729
728
734
743
485
0
0
0
0
0
0
368
967
1022
1022
1022
1022
939
826
769
722
721
726
736
475
0
0
0
0
0
0
362
963
1022
1022
1022
1022
943
829
771
723
724
729
736
484
0
0
0
0
0
0
364
966
1022
1022
1022
1022
942
828
772
727
728
732
740
484
0
0
0
0
0
0
367
966
1022
1022
1022
1022
939
825
768
721
723
726
734
482
0
0
0
0
0
0
362
959
1022
1022
1022
1022
937
822
774
726
726
729
736
486
0
0
0
0
0
0
355
959
1022
1022
1022
1022
937
826
773
725
729
736
743
488
0
0
0
0
0
0
353
951
1022
1022
1022
1022
936
822
768
720
721
727
738
486
0
0
0
0
0
0
353
954
1022
1022
1022
1022
940
819
764
716
719
722
732
481
0
0
0
0
0
0
350
950
1022
1022
1022
1022
934
822
763
713
715
719
732
486
0
0
0
0
0
0
347
948
1022
1022
1022
1022
933
818
762
714
716
722
730
487
0
0
0
0
0
0
348
949
1022
1022
1022
1022
936
824
770
721
725
727
737
491
0
0
0
0
0
0
349
947
1022
1022
1022
1022
932
822
774
724
724
726
737
490
0
0
0
0
0
0
348
948
1022
1022
1022
1022
940
824
767
718
722
727
737
492
0
0
0
0
0
0
348
950
1022
1022
1022
1022
938
823
768
719
721
727
737
487
0
0
0
0
0
0
347
950
1022
1022
1022
1022
941
825
767
722
724
729
739
498
0
0
0
0
0
0
349
951
1022
1022
1022
1022
943
827
770
723
723
727
736
495
0
0
0
0
0
0
344
947
1022
1022
1022
1022
943
828
771
721
724
724
733
494
0
0
0
0
0
0
347
947
1022
1022
1022
1022
946
828
771
723
724
729
737
499
0
0
0
0
0
0
339
940
1022
1022
1022
1022
940
824
767
719
719
723
734
496
0
0
0
0
0
0
341
942
1022
1022
1022
1022
940
823
767
719
719
722
737
496
0
0
0
0
0
0
344
942
1022
1022
1022
1022
942
824
769
722
724
730
740
501
0
0
0
0
0
0
339
939
1022
1022
1022
1022
941
828
773
723
723
728
740
503
0
0
0
0
0
0
344
940
1022
1022
1022
1022
939
824
771
724
723
727
734
498
0
0
0
0
0
0
345
942
1022
1022
1022
1022
943
829
770
722
724
726
736
503
0
0
0
0
0
0
341
939
1022
1022
1022
1022
940
826
769
724
722
726
739
501
0
0
0
0
0
0
335
938
1022
1022
1022
1022
944
826
774
725
728
731
739
504
0
0
0
0
0
0
338
938
1022
1022
1022
1022
944
828
768
720
719
720
735
499
0
0
0
0
0
0
339
938
1022
1022
1022
1022
944
825
770
722
722
727
735
502
0
0
0
0
0
0
334
936
1022
1023
1022
1022
943
827
771
722
721
729
739
502
0
0
0
0
0
0
328
927
1022
1022
1022
1022
940
821
770
722
722
726
735
500
0
0
0
0
0
0
336
934
1022
1022
1022
1022
942
824
767
721
723
725
736
505
0
0
0
0
0
0
333
931
1022
1022
1022
1022
944
827
777
724
723
728
739
508
0
0
0
0
0
0
334
935
1022
1022
1022
1022
944
830
777
728
728
728
732
504
0
0
0
0
0
0
333
935
1022
1022
1022
1022
944
827
771
723
724
728
739
506
0
0
0
0
0
0
326
930
1022
1022
1022
1022
945
828
769
721
721
726
736
506
0
0
0
0
0
0
327
926
1022
1022
1022
1022
943
827
774
725
726
729
738
513
0
0
0
0
0
0
327
929
1022
1022
1022
1022
948
828
770
721
724
728
738
511
0
0
0
0
0
0
326
926
1022
1022
1022
1022
943
825
771
722
725
726
734
508
0
0
0
0
0
0
327
929
1022
1022
1022
1022
946
825
767
718
717
721
734
510
0
0
0
0
0
0
324
926
1022
1022
1022
1022
944
827
771
718
721
725
739
514
0
0
0
0
0
0
327
931
1022
1022
1022
1022
948
831
771
723
722
725
737
514
0
0
0
0
0
0
324
927
1022
1022
1022
1022
947
832
777
726
726
729
739
515
0
0
0
0
0
0
324
924
1022
1022
1022
1022
947
827
775
724
726
729
738
517
0
0
0
0
0
0
324
923
1022
1022
1022
1022
947
830
775
721
721
727
735
509
0
0
0
0
0
0
327
926
1022
1022
1022
1022
945
824
771
722
721
725
737
513
0
0
0
0
0
0
326
927
1022
1022
1022
1022
946
831
771
719
721
726
737
517
0
0
0
0
0
0
326
928
1022
1022
1022
1022
951
826
774
727
728
728
737
515
0
0
0
0
0
0
319
922
1022
1022
1022
1022
947
824
771
724
721
726
736
516
0
0
0
0
0
0
320
924
1022
1022
1022
1022
944
828
774
720
721
723
732
516
0
0
0
0
0
0
320
918
1022
1022
1022
1022
945
827
769
720
721
723
736
514
0
0
0
0
0
0
319
919
1022
1022
1022
1022
946
825
771
723
723
727
739
521
0
0
0
0
0
0
318
919
1022
1022
1022
1022
948
831
774
721
722
728
736
517
0
0
0
0
0
0
314
915
1022
1022
1022
1022
947
827
774
728
725
727
737
519
0
0
0
0
0
0
322
925
1022
1022
1022
1022
948
829
772
725
723
727
738
520
0
0
0
0
0
0
323
924
1022
1022
1022
1022
948
831
782
730
729
734
743
523
0
0
0
0
0
0
320
919
1022
1022
1022
1022
947
827
774
723
721
724
735
515
0
0
0
0
0
0
323
921
1022
1022
1022
1022
951
832
774
724
721
724
737
519
0
0
0
0
0
0
320
919
1022
1022
1022
1022
948
829
770
720
720
724
736
518
0
0
0
0
0
0
320
922
1022
1022
1022
1022
948
828
772
723
721
723
732
515
0
0
0
0
0
0
318
920
1022
1022
1022
1022
947
829
772
722
721
727
735
515
0
0
0
0
0
0
317
916
1022
1022
1022
1022
949
827
772
722
724
728
736
523
0
0
0
0
0
0
316
918
1022
1022
1022
1022
948
828
771
721
720
725
736
517
0
0
0
0
0
0
318
918
1022
1022
1022
1022
950
831
771
722
724
727
737
521
0
0
0
0
0
0
320
918
1022
1022
1022
1022
946
827
775
724
724
727
737
519
0
0
0
0
0
0
319
921
1022
1022
1022
1022
947
825
770
719
723
724
732
516
0
0
0
0
0
0
319
917
1022
1022
1022
1022
944
827
777
726
724
726
737
515
0
0
0
0
0
0
319
918
1022
1022
1022
1022
948
827
769
721
723
725
734
517
0
0
0
0
0
0
322
919
1022
1022
1022
1022
951
831
771
722
719
726
737
515
0
0
0
0
0
0
321
920
1023
1022
1022
1022
948
830
776
728
731
733
742
524
0
0
0
0
0
0
322
921
1022
1022
1022
1022
947
827
773
724
723
727
740
522
0
0
0
0
0
0
318
919
1022
1022
1022
1022
949
831
769
719
718
721
736
518
0
0
0
0
0
0
318
920
1022
1022
1022
1022
948
827
773
723
721
725
739
519
0
0
0
0
0
0
320
919
1022
1022
1022
1022
944
827
772
721
724
729
737
519
0
0
0
0
0
0
318
916
1022
1022
1022
1022
950
829
769
723
726
728
737
519
0
0
0
0
0
0
318
921
1022
1022
1022
1022
948
828
772
723
722
726
739
521
0
0
0
0
0
0
321
921
1022
1022
1022
1022
948
825
773
722
723
727
739
518
0
0
0
0
0
0
323
921
1022
1022
1022
1022
948
828
768
719
720
724
734
512
0
0
0
0
0
0
323
924
1022
1022
1022
1022
949
829
770
722
723
728
739
519
0
0
0
0
0
0
321
926
1022
1022
1022
1022
949
833
780
728
728
728
739
517
0
0
0
0
0
0
321
924
1022
1022
1022
1022
949
825
776
727
727
725
737
518
0
0
0
0
0
0
327
923
1022
1022
1022
1022
949
829
772
722
723
726
738
517
0
0
0
0
0
0
319
919
1022
1022
1022
1022
949
829
774
724
724
725
737
518
0
0
0
0
0
0
322
921
1022
1022
1022
1022
945
826
772
719
720
723
734
515
0
0
0
0
0
0
322
923
1022
1022
1022
1022
950
830
770
719
720
724
737
514
0
0
0
0
0
0
321
921
1022
1022
1022
1022
946
827
767
718
719
724
734
514
0
0
0
0
0
0
324
924
1022
1022
1022
1022
945
826
765
719
719
723
736
511
0
0
0
0
0
0
320
920
1022
1022
1022
1022
946
825
772
718
720
726
733
515
0
0
0
0
0
0
323
927
1022
1022
1022
1022
951
828
772
722
721
723
736
515
0
0
0
0
0
0
327
928
1022
1022
1022
1022
945
829
775
726
727
730
738
518
0
0
0
0
0
0
321
918
1022
1022
1022
1022
945
827
774
724
724
727
737
512
0
0
0
0
0
0
322
923
1022
1022
1022
1022
947
828
775
724
725
726
739
516
0
0
0
0
0
0
323
924
1022
1023
1022
1022
945
826
768
719
720
727
736
513
0
0
0
0
0
0
323
924
1022
1023
1022
1022
946
826
768
720
721
722
734
513
0
0
0
0
0
0
328
927
1022
1022
1022
1022
946
825
769
719
723
727
740
518
0
0
0
0
0
0
324
928
1022
1022
1022
1022
944
825
773
724
724
727
737
514
0
0
0
0
0
0
320
921
1022
1022
1022
1022
947
831
772
721
723
726
738
516
