0
0
0
329
1022
1023
1022
1023
1022
1022
1023
1022
1022
1022
1022
1023
1022
1022
1023
0
0
0
0
386
1022
1023
1022
1023
1023
1022
1023
1022
1022
1022
1022
1023
1022
1023
1022
0
0
0
0
330
1023
1023
1022
1023
1023
1022
1023
1023
1022
1022
1022
1023
1022
1022
1022
0
0
0
0
339
1022
1023
1023
1022
1022
1022
1022
1022
1022
1023
1023
1023
1022
1023
1022
0
0
0
0
304
1022
1023
1022
1023
1023
1022
1023
1022
1023
1023
1022
1023
1022
1023
1022
0
0
0
0
309
1022
1023
1022
1023
1023
1022
1023
1023
1023
1023
1022
1023
1023
1023
1022
0
0
0
0
310
1022
1023
1022
1023
1022
1022
1023
1023
1022
1023
1022
1023
1023
1022
1023
0
0
0
0
371
1022
1022
1023
1023
1023
1022
1023
1023
1022
1022
1022
1023
1022
1023
1022
0
0
0
0
263
1022
1023
1023
1022
1023
1022
1023
1022
1023
1023
1022
1023
1023
1022
1022
0
0
0
0
607
1022
1023
1022
1023
1023
1022
1023
1022
1023
1022
1022
1023
1023
1022
1023
0
0
0
0
529
1022
1023
1022
1023
1023
1022
1023
1022
1023
1023
1022
1023
1022
1022
1023
0
0
0
0
527
1022
1023
1022
1023
1023
1022
1023
1022
1023
1023
1022
1022
1023
1023
1023
0
0
0
0
422
1022
1023
1022
1022
1022
1022
1023
1022
1023
1022
1022
1023
1023
1023
1022
0
0
0
0
420
1022
1023
1023
1022
1022
1022
1023
1023
1022
1023
1022
1023
1022
1023
1022
0
0
0
0
380
1022
1023
1023
1022
1022
1022
1023
1022
1023
1022
1022
1023
1022
1023
1022
0
0
0
0
389
1022
1022
1023
1023
1022
1022
1023
1022
1022
1023
1023
1023
1023
1023
1023
0
0
0
0
350
1022
1023
1022
1023
1023
1022
1023
1023
1023
1023
1022
1023
1022
1023
1023
0
0
0
0
364
1022
1023
1023
1023
1023
1022
1023
1022
1023
1023
1023
1023
1022
1023
1022
0
0
0
0
330
1022
1023
1022
1023
1023
1022
1023
1022
1022
1023
1022
1023
1022
1023
1022
0
0
0
0
329
1023
1023
1023
1022
1022
1022
1023
1022
1023
1022
1022
1023
1022
1022
1022
0
0
0
0
311
1022
1023
1023
1022
1022
1023
1023
1023
1022
1022
1022
1023
1022
1022
1022
0
0
0
0
309
1022
1023
1022
1023
1022
1023
1023
1022
1022
1022
1022
1023
1022
1022
1023
0
0
0
0
284
1022
1023
1022
1022
1023
1022
1023
1022
1023
1023
1022
1022
1023
1023
1023
0
0
0
0
332
1022
1023
1022
1023
1023
1022
1022
1022
1023
1023
1022
1022
1023
1023
1023
0
0
0
0
331
1022
1023
1022
1023
1022
1022
1023
1022
1023
1022
1022
1023
1022
1023
1022
0
0
0
0
304
1022
1023
1022
1022
1023
1022
1023
1022
1023
1023
1022
1023
1023
1023
1023
0
0
0
0
268
1022
1023
1022
1023
1023
1022
1023
1023
1023
1023
1022
1023
1022
1023
1023
0
0
0
0
275
1022
1023
1023
1022
1022
1023
1023
1022
1023
1023
1022
1023
1023
1023
1023
0
0
0
0
251
1022
1023
1023
1023
1022
1023
1023
1023
1023
1023
1022
1023
1023
1022
1023
0
0
0
0
247
1022
1023
1022
1023
1023
1022
1023
1022
1022
1023
1022
1023
1022
1022
1023
0
0
0
0
230
1022
1023
1022
1023
1023
1022
1023
1022
1023
1023
1022
1023
1023
1022
1022
0
0
0
0
245
1022
1022
1022
1023
1023
1022
1023
1022
1022
1023
1022
1023
1022
1023
1022
0
0
0
0
263
1022
1023
1022
1023
1023
1022
1023
1023
1023
1022
1022
1022
1022
1023
1023
0
0
0
0
281
1022
1023
1023
1022
1023
1022
1022
1022
1022
1023
1022
1023
1023
1023
1023
0
0
0
0
262
1022
1023
1022
1023
1023
1022
1023
1022
1023
1023
1022
1022
1022
1023
1023
0
0
0
0
243
1022
1023
1022
1023
1023
1022
1023
1022
1023
1022
1023
1023
1023
1023
1023
0
0
0
0
234
1022
1023
1022
1022
1023
1022
1023
1022
1023
1023
1022
1022
1023
1023
1023
0
0
0
0
222
1022
1023
1022
1022
1022
1022
1023
1022
1022
1022
1023
1023
1023
1023
1022
0
0
0
0
207
1022
1023
1022
1023
1022
1022
1023
1022
1023
1022
1023
1022
1023
1023
1023
0
0
0
0
198
1022
1023
1023
1023
1023
1022
1023
1023
1023
1023
1022
1023
1022
1023
1023
0
0
0
0
196
1022
1023
1022
1023
1023
1022
1023
1022
1023
1023
1022
1023
1023
1023
1023
0
0
0
0
225
1022
1022
1022
1023
1023
1022
1022
1023
1022
1022
1022
1023
1022
1022
1022
0
0
0
0
197
1022
1023
1022
1022
1023
1023
1022
1022
1022
1022
1022
1023
1023
1022
1023
0
0
0
0
209
1022
1023
1023
1023
1023
1023
1023
1022
1022
1023
1022
1023
1023
1023
1023
0
0
0
0
204
1022
1023
1023
1022
1022
1022
1023
1022
1023
1023
1023
1023
1022
1023
1022
0
0
0
0
160
1022
1023
1023
1023
1023
1022
1023
1022
1023
1023
1022
1023
1022
1023
1022
0
0
0
0
182
1022
1023
1022
1023
1023
1022
1023
1022
1023
1023
1022
1023
1022
1023
1023
0
0
0
0
187
1022
1023
1022
1023
1023
1022
1023
1022
1023
1023
1023
1022
1023
1023
1023
0
0
0
0
176
1022
1023
1022
1022
1022
1022
1023
1023
1022
1023
1022
1023
1022
1022
1022
0
0
0
0
163
1022
1023
1023
1022
1022
1023
1023
1023
1022
1022
1022
1023
1023
1023
1022
0
0
0
0
126
1022
1023
1023
1022
1022
1022
1023
1022
1023
1023
1022
1023
1023
1023
1022
0
0
0
0
172
1022
1023
1022
1023
1023
1022
1023
1022
1023
1023
1022
1023
1022
1023
1023
0
0
0
0
144
1022
1023
1023
1023
1023
1022
1023
1022
1023
1023
1022
1023
1022
1023
1023
0
0
0
0
152
1022
1022
1023
1023
1023
1022
1023
1022
1022
1022
1022
1022
1022
1023
1022
0
0
0
0
139
1022
1023
1023
1023
1023
1022
1023
1022
1023
1022
1022
1023
1022
1023
1022
0
0
0
0
163
1022
1023
1023
1022
1023
1023
1023
1022
1022
1022
1022
1023
1023
1023
1023
0
0
0
0
138
1022
1023
1022
1022
1023
1023
1023
1023
1022
1022
1022
1023
1022
1023
1022
0
0
0
0
144
1022
1023
1023
1023
1023
1022
1023
1022
1022
1023
1022
1023
1022
1023
1023
0
0
0
0
153
1022
1023
1023
1023
1023
1022
1023
1023
1022
1023
1022
1023
1022
1023
1023
0
0
0
0
133
1022
1023
1023
1023
1023
1022
1022
1023
1022
1023
1022
1023
1023
1023
1023
0
0
0
0
153
1022
1023
1022
1023
1023
1022
1023
1023
1022
1023
1022
1023
1022
1023
1022
0
0
0
0
178
1022
1023
1022
1023
1022
1022
1023
1023
1022
1023
1022
1022
1023
1023
1023
0
0
0
0
156
1022
1023
1022
1022
1022
1022
1023
1022
1022
1022
1022
1023
1023
1022
1023
0
0
0
0
122
1022
1023
1022
1023
1023
1022
1023
1022
1023
1023
1022
1023
1022
1023
1023
0
0
0
0
117
1022
1023
1023
1023
1023
1022
1023
1023
1023
1023
1022
1023
1022
1023
1023
0
0
0
0
120
1022
1023
1023
1023
1023
1023
1023
1022
1022
1022
1022
1023
1022
1023
1023
0
0
0
0
107
1022
1023
1023
1022
1022
1022
1023
1022
1022
1022
1022
1023
1022
1022
1022
0
0
0
0
0
1004
1023
1022
1022
1022
1022
1023
1022
1023
1023
1022
1023
1023
1023
1022
0
0
0
0
0
984
1023
1022
1022
1023
1022
1023
1022
1023
1023
1022
1023
1023
1023
1022
0
0
0
0
121
1022
1023
1022
1023
1023
1022
1023
1022
1023
1023
1022
1023
1022
1023
1023
241
0
0
0
270
1022
1023
1022
1022
1023
1022
1023
1022
1023
1023
1022
1023
1022
1023
1023
782
0
0
0
475
1022
1023
1022
1023
1023
1022
1023
1023
1022
1022
1022
1023
1023
1023
1022
196
0
0
0
174
1022
1023
1022
1022
1022
1022
1023
1022
1022
1022
1022
1023
1022
1023
1023
0
0
0
0
0
884
1023
1023
1022
1023
1023
1023
1023
1023
1023
1023
1023
1022
1023
1022
0
0
0
0
0
975
1023
1023
1023
1023
1022
1023
1023
1022
1022
1023
1023
1022
1023
1023
0
0
0
0
0
897
1023
1022
1023
1023
1022
1023
1022
1022
1023
1022
1023
1023
1023
1023
0
0
0
0
0
851
1023
1022
1023
1023
1022
1023
1022
1023
1023
1022
1023
1022
1023
1023
0
0
0
0
0
889
1023
1022
1022
1022
1022
1023
1023
1022
1023
1022
1023
1022
1022
1022
201
0
0
0
38
1015
1023
1022
1022
1022
1022
1023
1023
1022
1022
1022
1023
1023
1022
1022
87
0
0
0
0
945
1023
1022
1022
1022
1022
1023
1022
1022
1022
1022
1023
1022
1023
1023
127
0
0
0
0
938
1023
1022
1022
1023
1022
1023
1022
1023
1023
1022
1023
1022
1023
1023
405
0
0
0
70
1019
1023
1022
1023
1023
1022
1023
1022
1023
1023
1022
1023
1022
1023
1023
319
0
0
0
60
1016
1023
1022
1023
1023
1022
1023
1022
1023
1023
1022
1023
1022
1022
1022
414
0
0
0
133
1022
1023
1022
1022
1022
1022
1023
1023
1022
1023
1022
1023
1023
1023
1023
405
0
0
0
100
1021
1023
1022
1022
1022
1022
1023
1023
1023
1023
1022
1023
1022
1022
1022
231
0
0
0
0
964
1023
1023
1022
1022
1022
1023
1023
1022
1023
1022
1023
1022
1023
1023
187
0
0
0
0
973
1023
1023
1022
1022
1022
1023
1022
1023
1023
1022
1023
1023
1023
1023
88
0
0
0
0
927
1023
1022
1023
1023
1022
1023
1022
1023
1023
1022
1023
1022
1023
1023
208
0
0
0
0
952
1023
1022
1022
1023
1023
1023
1022
1023
1023
1022
1022
1022
1022
1023
132
0
0
0
0
930
1023
1022
1022
1022
1022
1023
1022
1023
1023
1022
1023
1022
1022
1023
205
0
0
0
0
953
1023
1022
1023
1023
1022
1023
1023
1023
1023
1022
1022
1022
1023
1022
213
0
0
0
0
957
1023
1022
1022
1022
1022
1023
1023
1023
1022
1022
1023
1023
1022
1022
206
0
0
0
0
956
1023
1023
1022
1022
1022
1023
1022
1023
1023
1022
1023
1022
1023
1023
241
0
0
0
0
960
1023
1022
1023
1023
1022
1023
1023
1022
1023
1022
1023
1023
1023
1023
330
0
0
0
0
983
1023
1022
1023
1023
1022
1023
1022
1023
1023
1022
1023
1022
1023
1023
281
0
0
0
0
971
1023
1022
1023
1023
1022
1023
1022
1023
1023
1022
1023
1023
1023
1023
301
0
0
0
0
960
1023
1023
1023
1023
1022
1023
1022
1023
1023
1022
1023
1023
1022
1022
533
0
0
0
77
1019
1023
1023
1022
1023
1022
1023
1023
1022
1023
1022
1023
1023
1022
1023
521
0
0
0
79
1020
1023
1023
1022
1023
1022
1023
1022
1023
1023
1022
1023
1022
1023
1023
462
0
0
0
4
1003
1023
1023
1022
1023
1022
1023
1023
1022
1023
1022
1023
1022
1023
1023
460
0
0
0
0
991
1023
1022
1023
1023
1022
1023
1023
1022
1023
1022
1022
1022
1022
1023
519
0
0
0
0
996
1023
1023
1023
1023
1022
1023
1022
1023
1023
1022
1023
1022
1022
1022
555
0
0
0
42
1011
1023
1022
1022
1022
1022
1023
1023
1022
1022
1022
1023
1022
1022
1022
476
0
0
0
6
999
1023
1023
1022
1022
1022
1023
1023
1022
1022
1022
1023
1023
1022
1023
564
0
0
0
27
1008
1023
1023
1023
1023
1022
1023
1023
1023
1023
1022
1023
1022
1023
1023
582
0
0
0
53
1014
1023
1022
1023
1023
1022
1023
1022
1022
1023
1022
1023
1022
1023
1023
506
0
0
0
5
1001
1023
1023
1023
1023
1022
1023
1022
1023
1023
1022
1023
1022
1023
1023
573
0
0
0
57
1015
1023
1023
1022
1023
1022
1023
1023
1022
1022
1022
1023
1023
1023
1022
641
0
0
0
43
1011
1023
1023
1022
1022
1022
1023
1023
1023
1023
1022
1023
1023
1022
1023
613
0
0
0
19
1005
1023
1023
1023
1022
1022
1023
1022
1022
1023
1022
1023
1023
1023
1022
669
0
0
0
38
1009
1023
1022
1023
1023
1022
1023
1022
1023
1023
1022
1023
1022
1023
1023
643
0
0
0
13
1002
1023
1023
1023
1023
1022
1023
1022
1023
1023
1023
1023
1022
1023
1023
677
0
0
0
0
988
1023
1023
1023
1023
1022
1022
1022
1023
1022
1022
1023
1022
1023
1023
611
0
0
0
0
964
1023
1023
1023
1022
1022
1023
1023
1022
1022
1022
1023
1022
1023
1022
675
0
0
0
0
957
1023
1022
1023
1022
1022
1023
1022
1023
1023
1022
1023
1023
1023
1023
617
0
0
0
0
912
1023
1023
1022
1023
1022
1023
1022
1022
1023
1022
1023
1022
1022
1022
592
0
0
0
0
885
1023
1022
1023
1023
1022
1023
1022
1023
1023
1022
1023
1022
1023
1023
604
0
0
0
0
874
1023
1022
1023
1023
1022
1023
1023
1023
1023
1022
1023
1022
1023
1023
615
0
0
0
0
882
1023
1022
1023
1023
1022
1023
1022
1023
1023
1022
1023
1022
1022
1023
525
0
0
0
0
854
1023
1023
1022
1022
1022
1023
1022
1023
1022
1022
1023
1023
1023
1023
576
0
0
0
0
857
1023
1022
1023
1022
1022
1023
1023
1022
1023
1022
1023
1022
1022
1023
614
0
0
0
0
858
1022
1022
1022
1023
1022
1023
1022
1023
1023
1022
1023
1022
1023
1023
588
0
0
0
0
846
1023
1022
1022
1023
1022
1023
1022
1023
1023
1022
1023
1023
1023
1023
652
0
0
0
0
860
1023
1022
1023
1023
1022
1023
1022
1023
1023
1022
1023
1023
1022
1022
627
0
0
0
0
841
1023
1023
1023
1023
1022
1023
1022
1023
1023
1022
1023
1022
1023
1023
606
0
0
0
0
805
1023
1023
1023
1023
1022
1023
1022
1022
1023
1022
1023
1022
1023
1023
574
0
0
0
0
796
1022
1023
1023
1023
1022
1023
1023
1022
1022
1022
1023
1023
1022
1023
568
0
0
0
0
795
1023
1023
1023
1022
1022
1023
1022
1022
1023
1022
1023
1023
1023
1023
629
0
0
0
0
790
1023
1022
1023
1023
1022
1023
1022
1023
1023
1022
1023
1023
1023
1023
589
0
0
0
0
780
1022
1023
1023
1023
1023
1023
1022
1023
1023
1022
1023
1023
1023
1023
657
0
0
0
0
799
1023
1023
1022
1023
1022
1022
1023
1023
1022
1022
1022
1022
1022
1023
622
0
0
0
0
782
1023
1022
1022
1023
1023
1023
1022
1023
1023
1022
1023
1023
1023
1023
623
0
0
0
0
786
1023
1022
1022
1023
1023
1023
1023
1023
1023
1022
1022
1023
1023
1022
632
0
0
0
0
761
1022
1023
1023
1023
1022
1023
1022
1023
1022
1022
1023
1022
1022
1023
623
0
0
0
0
749
1023
1022
1023
1023
1022
1023
1023
1023
1023
1022
1023
1022
1023
1023
647
0
0
0
0
756
1023
1022
1023
1023
1022
1023
1023
1023
1023
1022
1023
1022
1022
1023
610
0
0
0
0
716
1023
1022
1022
1022
1022
1023
1023
1022
1022
1022
1023
1023
1023
1023
689
0
0
0
0
737
1023
1022
1023
1023
1023
1023
1022
1023
1022
1022
1023
1023
1023
1022
733
0
0
0
0
748
1023
1023
1022
1023
1022
1023
1023
1023
1023
1022
1023
1023
1022
1023
676
0
0
0
0
731
1023
1023
1022
1023
1022
1023
1022
1023
1023
1022
1023
1022
1023
1023
707
0
0
0
0
712
1023
1023
1023
1023
1022
1023
1022
1023
1023
1022
1023
1023
1023
1023
705
0
0
0
0
693
1023
1022
1023
1023
1022
1023
1022
1023
1023
1022
1023
1023
1022
1022
682
0
0
0
0
693
1023
1022
1023
1023
1022
1023
1023
1023
1022
1022
1023
1022
1023
1022
720
0
0
0
0
682
1023
1022
1023
1023
1022
1022
1022
1023
1023
1022
1023
1023
1023
1023
752
0
0
0
0
697
1022
1022
1023
1023
1022
1023
1022
1023
1023
1022
1023
1022
1023
1023
711
0
0
0
0
686
1023
1022
1023
1023
1022
1023
1022
1023
1022
1022
1023
1023
1023
1023
721
0
0
0
0
662
1023
1022
1023
1023
1022
1023
1022
1023
1023
1022
1023
1022
1022
1023
804
0
0
0
0
688
1023
1023
1023
1023
1022
1023
1022
1023
1023
1022
1023
1023
1023
1023
721
0
0
0
0
668
1023
1022
1023
1022
1023
1023
1023
1022
1023
1022
1023
1023
1023
1023
814
0
0
0
0
702
1023
1022
1023
1023
1022
1023
1022
1022
1023
1022
1023
1023
1022
1022
843
0
0
0
0
701
1023
1022
1023
1023
1022
1023
1022
1022
1023
1022
1023
1023
1023
1023
831
0
0
0
0
695
1023
1022
1022
1023
1022
1023
1023
1023
1023
1022
1023
1022
1023
1023
793
0
0
0
0
687
1023
1022
1023
1023
1022
1023
1023
1023
1023
1022
1022
1023
1023
1023
834
0
0
0
0
688
1023
1022
1023
1023
1023
1023
1022
1023
1023
1022
1023
1023
1023
1023
864
0
0
0
0
699
1023
1022
1023
1023
1022
1023
1022
1023
1023
1022
1022
1022
1023
1023
824
0
0
0
0
683
1023
1022
1023
1023
1022
1023
1023
1023
1023
1022
1022
1023
1023
1023
847
0
0
0
0
667
1022
1023
1023
1022
1022
1023
1023
1023
1023
1022
1023
1022
1023
1023
888
0
0
0
0
664
1023
1023
1023
1023
1022
1023
1022
1023
1023
1023
1023
1023
1023
1023
829
0
0
0
0
665
1023
1022
1023
1023
1022
1023
1022
1022
1023
1022
1023
1022
1023
1023
845
0
0
0
0
665
1023
1022
1023
1023
1023
1023
1023
1023
1023
1022
1023
1022
1023
1023
925
0
0
0
0
663
1023
1022
1023
1023
1022
1023
1023
1023
1023
1022
1022
1022
1023
1023
911
0
0
0
0
666
1023
1023
1022
1022
1022
1023
1023
1023
1022
1022
1023
1022
1022
1023
924
0
0
0
0
645
1023
1023
1023
1022
1022
1023
1022
1023
1023
1022
1023
1023
1022
1023
880
0
0
0
0
616
1023
1022
1022
1023
1022
1023
1022
1023
1023
1022
1023
1023
1023
1023
918
0
0
0
0
655
1023
1022
1023
1023
1022
1023
1022
1023
1023
1022
1023
1022
1023
1023
948
0
0
0
0
626
1023
1023
1022
1023
1022
1023
1023
1023
1023
1022
1023
1022
1022
1022
973
0
0
0
0
635
1023
1023
1023
1023
1022
1023
1022
1022
1023
1022
1023
1022
1023
1023
1022
0
0
0
0
660
1023
1023
1022
1022
1022
1023
1023
1023
1022
1022
1023
1022
1023
1023
1020
0
0
0
0
642
1023
1022
1023
1023
1022
1023
1023
1023
1023
1022
1023
1022
1022
1023
1019
0
0
0
0
639
1023
1022
1023
1023
1022
1023
1022
1023
1023
1022
1023
1023
1023
1023
1022
0
0
0
0
643
1023
1023
1023
1023
1022
1022
1023
1023
1023
1022
1023
1022
1023
1023
1021
0
0
0
0
625
1022
1023
1023
1023
1022
1023
1022
1023
1023
1022
1023
1023
1023
1022
1022
0
0
0
0
625
1023
1023
1022
1023
1022
1023
1023
1023
1023
1023
1023
1022
1023
1023
1022
0
0
0
0
622
1022
1022
1023
1023
1023
1023
1023
1022
1022
1022
1022
1023
1023
1023
1022
0
0
0
0
600
1023
1023
1023
1023
1022
1023
1023
1022
1023
1022
1023
1023
1023
1023
1022
0
0
0
0
584
1023
1022
1023
1023
1023
1022
1023
1023
1023
1023
1023
1022
1023
1023
1022
0
0
0
0
595
1023
1022
1023
1023
1022
1023
1023
1023
1023
1022
1023
1023
1023
1023
1022
0
0
0
0
587
1023
1022
1023
1023
1022
1023
1022
1023
1023
1022
1023
1022
1023
1023
1022
0
0
0
0
584
1023
1022
1022
1022
1022
1023
1023
1023
1023
1022
1023
1023
1022
1022
1020
0
0
0
0
555
1023
1023
1023
1023
1022
1023
1022
1023
1023
1022
1023
1023
1022
1022
1022
0
0
0
0
558
1022
1022
1022
1022
1022
1023
1022
1023
1022
1022
1023
1023
1022
1022
1022
0
0
0
0
591
1023
1022
1023
1023
1023
1023
1022
1023
1023
1022
1023
1022
1022
1023
1022
0
0
0
0
545
1023
1022
1023
1023
1022
1022
1023
1023
1023
1022
1023
1022
1023
1023
1022
0
0
0
0
561
1023
1023
1023
1023
1022
1023
1022
1023
1022
1022
1023
1023
1023
1022
1022
0
0
0
0
559
1023
1022
1022
1022
1023
1023
1022
1022
1023
1022
1023
1023
1023
1023
1022
1023
1023
1023
1022
1022
1023
1022
1023
1023
1023
1023
1022
1023
1023
1022
1023
1023
1023
1022
870
0
0
0
0
384
1022
1022
1023
1023
1022
1023
1022
1023
1023
1022
1023
1022
1022
1022
1022
0
0
0
0
502
1023
1023
1023
1023
1022
1023
1023
1023
1023
1022
1023
1022
1023
1022
1022
0
0
0
0
528
1023
1023
1023
1023
1022
1023
1022
1023
1023
1022
1023
1022
1023
1023
1022
0
0
0
0
513
1023
1022
1023
1022
1022
1023
1022
1023
1023
1022
1022
1023
1023
1022
1022
0
0
0
0
524
1022
1023
1022
1022
1022
1023
1023
1022
1022
1022
1022
1022
1022
1022
1022
0
0
0
0
536
1022
1022
1022
1022
1022
1023
1023
1023
1023
1022
1023
1023
1023
1022
1022
0
0
0
0
521
1023
1023
1022
1023
1022
1022
1022
1023
1023
1022
1023
1023
1022
1022
1022
0
0
0
0
509
1023
1023
1023
1023
1022
1023
1022
1023
1023
1022
1022
1023
1023
1022
1022
0
0
0
0
505
1023
1023
1023
1023
1022
1023
1022
1023
1023
1022
1023
1022
1023
1022
1022
0
0
0
0
521
1023
1022
1023
1023
1023
1022
1022
1023
1023
1022
1023
1023
1023
1022
1022
0
0
0
0
500
1023
1022
1023
1023
1022
1023
1023
1023
1022
1022
1023
1022
1023
1023
1022
0
0
0
0
542
1023
1022
1023
1023
1023
1023
1022
1023
1023
1022
1023
1023
1023
1022
1022
0
0
0
0
503
1023
1023
1023
1022
1022
1023
1023
1022
1023
1022
1022
1023
1022
1022
1022
0
0
0
0
493
1023
1022
1023
1023
1022
1022
1023
1023
1023
1022
1023
1022
1023
1022
1022
0
0
0
0
504
1023
1022
1023
1023
1022
1023
1023
1023
1023
1022
1023
1023
1023
1022
1022
0
0
0
0
520
1022
1023
1023
1023
1022
1023
1022
1022
1023
1022
1023
1023
1023
1022
1022
0
0
0
0
471
1023
1023
1023
1023
1022
1023
1022
1023
1023
1022
1023
1022
1023
1022
1022
0
0
0
0
486
1022
1023
1022
1023
1022
1023
1023
1023
1023
1022
1023
1023
1023
1022
1022
0
0
0
0
481
1023
1023
1022
1022
1022
1023
1023
1023
1023
1023
1023
1022
1023
1022
1022
0
0
0
0
483
1022
1022
1023
1023
1022
1023
1023
1023
1023
1022
1023
1022
1023
1022
1022
1023
1023
1023
1023
1022
1023
1022
1023
1023
1022
1023
1022
1023
1023
1022
1023
1022
1023
1023
1022
1023
1022
1022
1023
1022
1022
1022
1023
1022
1023
1023
1023
1022
1022
1022
1022
1023
1023
1023
1022
0
0
0
0
307
1022
1022
1023
1022
1022
1023
1023
1023
1022
1022
1022
1022
1023
1022
1022
0
0
0
0
373
1022
1023
1023
1023
1022
1022
1022
1023
1023
1022
1023
1022
1022
1023
1022
1022
1022
1023
1023
1022
1023
1022
1023
1023
1022
1022
1023
1022
1022
1022
1022
1022
1023
1023
1022
1023
1022
1022
1023
1022
1023
1022
1023
1023
1022
1022
1022
1022
1023
1022
1023
1022
1023
1022
755
0
0
0
0
129
1015
1023
1023
1023
1022
1022
1023
1023
1023
1022
1023
1022
1022
1023
1022
0
0
0
0
328
1022
1023
1022
1023
1022
1023
1023
1023
1023
1022
1023
1023
1023
1022
1022
0
0
0
0
368
1023
1023
1022
1023
1022
1023
1022
1023
1023
1022
1022
1022
1022
1022
1022
0
0
0
0
399
1022
1022
1022
1022
1023
1023
1023
1022
1023
1022
1022
1023
1023
1022
1022
0
0
0
0
403
1023
1022
1023
1023
1022
1022
1022
1023
1023
1022
1022
1023
1023
1023
1022
0
0
0
0
440
1023
1022
1023
1023
1022
1023
1022
1023
1023
1022
1023
1023
1023
1023
1022
0
0
0
0
416
1022
1023
1023
1023
1022
1023
1022
1023
1023
1022
1022
1022
1023
1022
1022
0
0
0
0
396
1022
1023
1023
1023
1022
1022
1022
1023
1023
1022
1023
1023
1023
1022
1022
0
0
0
0
405
1022
1022
1022
1022
1022
1023
1022
1023
1023
1022
1022
1023
1023
1022
1022
0
0
0
0
400
1022
1023
1023
1023
1022
1022
1023
1023
1022
1022
1023
1022
1022
1022
1022
0
0
0
0
420
1023
1022
1023
1023
1022
1022
1023
1023
1023
1022
1022
1023
1023
1023
1022
0
0
0
0
417
1023
1022
1023
1023
1022
1023
1022
1023
1023
1022
1023
1022
1023
1023
1022
0
0
0
0
425
1022
1022
1023
1023
1022
1023
1023
1023
1023
1022
1022
1022
1023
1023
1022
0
0
0
0
384
1023
1022
1022
1023
1023
1023
1023
1023
1023
1022
1023
1023
1023
1023
1022
0
0
0
0
388
1022
1023
1023
1023
1022
1023
1022
1023
1023
1022
1023
1023
1023
1023
1022
0
0
0
0
391
1022
1023
1023
1023
1023
1022
1023
1023
1023
1022
1022
1022
1023
1023
1022
0
0
0
0
391
1023
1023
1023
1023
1022
1023
1022
1023
1023
1022
1023
1022
1023
1023
1022
0
0
0
0
398
1023
1022
1023
1023
1022
1023
1023
1023
1023
1022
1023
1022
1023
1023
1022
0
0
0
0
362
1023
1022
1022
1023
1022
1022
1023
1023
1023
1022
1022
1022
1023
1023
1022
0
0
0
0
402
1023
1023
1023
1023
1022
1022
1023
1023
1023
1023
1023
1023
1023
1023
1023
0
0
0
0
371
1022
1023
1023
1022
1022
1023
1023
1023
1023
1022
1022
1023
1023
1023
1022
0
0
0
0
371
1022
1023
1023
1023
1022
1022
1023
1023
1023
1022
1023
1023
1023
1023
1022
0
0
0
0
350
1022
1022
1023
1022
1022
1023
1023
1023
1023
1022
1023
1022
1023
1023
1022
0
0
0
0
351
1022
1023
1023
1023
1022
1023
1022
1023
1022
1022
1023
1023
1023
1023
1022
0
0
0
0
345
1022
1022
1022
1023
1022
1022
1023
1023
1023
1022
1023
1023
1023
1023
1022
0
0
0
0
341
1022
1022
1023
1023
1022
1023
1023
1023
1023
1022
1023
1022
1023
1023
1022
0
0
0
0
360
1022
1023
1023
1022
1022
1023
1022
1023
1023
1022
1023
1022
1022
1022
1022
0
0
0
0
352
1022
1022
1022
1023
1022
1023
1022
1023
1023
1022
1023
1023
1023
1023
1022
0
0
0
0
339
1022
1023
1023
1023
1022
1022
1023
1023
1023
1022
1022
1022
1023
1023
1022
0
0
0
0
326
1022
1023
1023
1023
1022
1023
1022
1023
1023
1022
1023
1023
1023
1022
1022
1023
1022
1023
1023
1022
1023
1022
1023
1023
1022
1023
1023
1023
1023
1022
1022
1023
1023
1023
1022
1022
1023
1023
1023
1022
1023
1023
1023
1023
1022
1023
1022
1022
1022
1022
1023
1022
1023
1023
1022
1022
1022
1023
1023
1022
1023
1022
1023
1023
1022
1022
1022
1022
1023
1022
1022
1023
1023
1023
1022
1022
1023
1023
1023
1022
1023
1023
1023
1023
1022
1022
1023
1023
1023
1022
1023
1023
1023
1023
1022
1022
1023
1023
1023
1022
1023
1022
1022
1023
1022
1023
1023
1023
1023
1022
1022
1022
1022
1022
1022
1023
1023
1023
1023
1022
1023
1022
1023
1023
1022
1023
1023
1023
1023
1022
1022
1022
1023
1022
1022
1023
1022
1023
1023
1022
1023
1022
1023
1023
1022
1023
1023
1023
1023
1022
1023
1022
1023
1023
1023
1023
15
569
1022
1022
1023
1023
1023
1023
1023
1022
1022
1023
1023
1022
1023
1022
1023
1023
1022
1023
0
0
359
1022
1023
1023
1023
1022
1022
1023
1022
1023
1023
1022
1022
1023
1023
1023
1022
1023
0
0
515
1022
1022
1022
1022
1023
1022
1023
1023
1023
1022
1022
1023
1023
1023
1023
1022
1022
0
0
455
1022
1023
1022
1023
1022
1022
1023
1022
1023
1023
1022
1023
1023
1023
1023
1022
1023
0
0
681
1022
1023
1022
1023
1023
1022
1023
1023
1023
1023
1022
1023
1022
1023
1023
1022
1023
138
443
1022
1022
1022
1023
1023
1023
1022
1023
1023
1023
1023
1022
1022
1023
1023
1023
1022
1022
261
0
643
1022
1023
1022
1023
1023
1022
1022
1023
1022
1023
1022
1022
1022
1022
1023
1022
0
0
0
0
367
1022
1023
1023
1022
1022
1022
1022
1023
1023
1022
1022
1022
1023
1023
1022
174
0
0
0
683
1022
1023
1023
1023
1022
1023
1022
1022
1022
1022
1023
1023
1023
1023
1022
0
0
0
0
71
1000
1023
1023
1023
1022
1023
1022
1023
1023
1022
1023
1023
1023
1022
1022
0
0
0
0
579
1022
1022
1023
1023
1022
1023
1023
1023
1023
1023
1023
1023
1023
1023
1022
1023
1022
1023
1023
1022
1023
1023
1023
1023
1022
1023
1022
1023
1022
1022
1022
1023
1023
1023
1022
0
0
0
0
340
1022
1023
1023
1023
1022
1022
1023
1023
1023
1022
1022
1023
1023
1023
1022
1022
0
0
312
1022
1023
1022
1022
1023
1022
1022
1023
1023
1023
1022
1023
1022
1023
1023
1022
0
0
0
0
460
1022
1022
1023
1022
1022
1023
1023
1023
1023
1022
1023
1023
1022
1022
1022
0
0
0
622
1022
1023
1022
1023
1022
1022
1023
1023
1023
1023
1022
1022
1022
1023
1022
1022
1023
242
498
1022
1022
1022
1022
1023
1023
1022
1023
1022
1022
1022
1022
1022
1023
1023
1023
1022
1022
1022
1023
1023
1023
1023
1023
1023
1023
1022
1023
1023
1023
1023
1022
1022
1023
1023
1023
1022
1023
1023
1023
1023
1022
1022
1023
1023
1023
1022
1022
1023
1023
1023
1022
1023
1023
1023
1023
836
0
0
0
0
0
794
1023
1023
1023
1022
1022
1023
1023
1023
1022
1022
1022
1023
1023
1022
1023
1022
1023
1023
1022
1023
1023
1023
1023
1023
1023
1023
1023
1023
1022
1023
1023
1023
1023
1022
1023
676
729
1022
1022
1023
1022
1023
1023
1022
1023
1022
1023
1023
1022
1022
1022
1022
41
0
0
0
0
0
0
0
0
0
0
0
437
1022
1023
1023
1022
1022
0
0
0
0
0
0
0
0
0
0
0
0
0
0
918
1022
1023
1023
1022
1022
0
0
0
0
0
0
0
0
0
0
0
0
0
99
1022
1023
1023
1023
1022
1022
0
0
0
0
0
0
0
0
0
0
224
0
700
1022
1022
1023
1023
1022
1022
1022
1023
1023
1022
1022
0
0
0
0
0
1022
1023
1023
1023
1022
1022
1022
1022
1023
1022
1023
1022
1022
1023
1022
0
0
0
0
410
1023
1022
1023
1023
1022
1022
1022
1023
1023
1022
1023
1022
1023
1023
1022
376
0
0
0
762
1023
1022
1023
1023
1022
1023
1022
1023
1023
1022
1023
1022
1022
1022
1022
223
0
0
0
890
1023
1022
1023
1023
1022
1023
1022
1023
1023
1022
1023
1023
1023
1023
1022
1022
1022
1022
1023
1022
1022
1023
1023
1023
1022
1023
1023
1023
1023
1022
1023
1022
1023
1023
1022
1022
108
0
775
1022
1023
1023
1023
1023
1022
1023
1022
1023
1023
1022
1022
1023
1023
1022
1022
1022
286
0
860
1022
1022
1023
1023
1023
1022
1022
1022
1023
1023
1022
1023
1023
1023
1023
1022
1023
162
0
724
1022
1023
1023
1023
1023
1022
1023
1022
1023
1023
1022
1022
1023
1023
1023
1022
