812
1022
1022
1022
1022
894
796
753
717
722
731
744
563
39
0
0
0
0
0
299
810
1022
1022
1022
1022
887
792
750
711
717
726
738
556
33
0
0
0
0
0
294
800
1022
1022
1022
1022
886
790
755
715
719
726
739
556
33
0
0
0
0
0
301
804
1022
1022
1022
1022
884
789
747
711
716
723
732
551
31
0
0
0
0
0
289
799
1022
1022
1022
1022
877
781
743
708
711
720
732
551
28
0
0
0
0
0
293
800
1022
1023
1022
1022
882
786
743
704
712
718
730
548
28
0
0
0
0
0
288
793
1022
1022
1022
1022
882
787
746
711
715
723
733
552
32
0
0
0
0
0
291
802
1022
1022
1022
1022
885
785
746
709
712
722
735
551
31
0
0
0
0
0
292
799
1022
1022
1022
1022
884
788
744
705
712
716
731
553
33
0
0
0
0
0
291
800
1022
1022
1022
1022
886
789
745
707
712
720
735
550
30
0
0
0
0
0
294
802
1022
1022
1022
1022
880
787
749
711
715
723
736
553
32
0
0
0
0
0
288
798
1022
1022
1022
1022
883
784
742
707
713
721
733
554
32
0
0
0
0
0
289
794
1022
1022
1022
1022
883
783
743
704
710
720
730
554
32
0
0
0
0
0
288
796
1022
1022
1022
1022
885
787
744
706
710
718
732
551
30
0
0
0
0
0
291
799
1022
1022
1022
1022
882
784
745
707
713
719
733
553
30
0
0
0
0
0
290
799
1022
1022
1022
1022
884
784
741
703
708
716
730
550
29
0
0
0
0
0
287
798
1022
1022
1022
1022
881
785
743
708
716
723
738
556
33
0
0
0
0
0
291
799
1022
1022
1022
1022
889
792
749
712
717
723
737
557
34
0
0
0
0
0
288
799
1022
1022
1022
1022
886
788
750
712
718
729
741
561
37
0
0
0
0
0
306
813
1022
1022
1022
1022
898
804
761
726
730
737
752
573
51
0
0
0
0
0
312
818
1022
1022
1022
1022
909
810
767
726
733
739
751
571
51
0
0
0
0
0
312
820
1022
1022
1022
1022
903
806
764
726
732
741
751
571
49
0
0
0
0
0
308
817
1022
1022
1022
1022
896
799
764
723
726
733
744
565
43
0
0
0
0
0
307
816
1022
1023
1022
1022
899
803
761
723
727
733
746
565
42
0
0
0
0
0
305
810
1022
1022
1022
1022
886
791
751
713
718
723
736
555
33
0
0
0
0
0
287
792
1022
1022
1022
1022
884
788
744
707
713
719
733
549
29
0
0
0
0
0
290
798
1022
1022
1022
1022
881
785
743
704
710
719
730
545
23
0
0
0
0
0
284
797
1022
1022
1022
1022
883
785
741
706
712
718
729
546
25
0
0
0
0
0
295
802
1022
1022
1022
1022
885
790
745
710
718
725
739
551
31
0
0
0
0
0
297
804
1022
1022
1022
1022
888
791
749
709
716
723
735
550
28
0
0
0
0
0
306
812
1022
1022
1022
1022
892
792
747
709
717
724
737
552
30
0
0
0
0
0
306
817
1022
1022
1022
1022
892
792
753
714
721
730
742
557
30
0
0
0
0
0
304
817
1022
1022
1022
1022
896
799
756
720
727
734
748
560
35
0
0
0
0
0
309
821
1022
1022
1022
1022
895
798
755
718
723
731
743
555
27
0
0
0
0
0
302
804
1022
1022
1022
1022
873
781
743
710
711
717
729
537
17
0
0
0
0
0
302
807
1022
1022
1022
1022
878
787
753
712
717
726
736
547
23
0
0
0
0
0
305
812
1022
1022
1022
1022
880
790
754
716
721
727
736
548
25
0
0
0
0
0
303
812
1022
1022
1022
1022
883
788
748
711
716
724
734
544
21
0
0
0
0
0
308
816
1022
1022
1022
1022
881
787
747
708
713
720
733
542
22
0
0
0
0
0
303
809
1022
1022
1022
1022
871
777
734
700
708
715
725
535
12
0
0
0
0
0
300
814
1022
1022
1022
1022
886
790
752
716
720
729
742
547
27
0
0
0
0
0
306
819
1022
1022
1022
1022
883
785
745
708
716
724
738
545
22
0
0
0
0
0
317
826
1022
1022
1022
1022
892
798
757
719
726
736
750
556
33
0
0
0
0
0
318
828
1022
1022
1022
1022
893
794
749
713
719
729
742
546
22
0
0
0
0
0
309
820
1022
1022
1022
1022
883
790
746
712
719
726
742
545
21
0
0
0
0
0
319
832
1022
1022
1022
1022
892
797
756
721
727
733
744
549
26
0
0
0
0
0
322
831
1022
1022
1022
1022
886
792
749
714
721
728
741
541
19
0
0
0
0
0
312
822
1022
1023
1022
1022
882
791
752
716
722
728
742
540
19
0
0
0
0
0
316
828
1022
1022
1022
1022
881
785
744
708
715
724
737
533
9
0
0
0
0
0
311
819
1022
1022
1022
1022
877
786
747
709
713
721
733
527
3
0
0
0
0
0
311
821
1022
1022
1022
1022
871
790
759
719
721
724
735
531
7
0
0
0
0
0
325
829
1022
1022
1022
1022
877
792
758
720
723
730
741
532
15
0
0
0
0
0
323
829
1022
1022
1022
1022
883
794
753
719
727
733
745
540
15
0
0
0
0
0
335
843
1022
1022
1022
1022
884
793
752
718
723
730
743
534
9
0
0
0
0
0
330
838
1022
1022
1022
1022
877
784
749
716
721
729
742
534
11
0
0
0
0
0
332
845
1022
1023
1022
1022
891
799
759
721
729
736
750
540
16
0
0
0
0
0
334
846
1022
1022
1022
1022
883
794
749
718
724
730
745
537
16
0
0
0
0
0
335
847
1022
1022
1022
1022
889
798
754
716
725
733
741
527
5
0
0
0
0
0
330
842
1022
1022
1022
1022
873
792
755
719
724
733
743
526
4
0
0
0
0
0
330
842
1022
1022
1022
1022
875
782
740
706
711
719
732
515
0
0
0
0
0
0
327
840
1022
1022
1022
1022
873
786
753
717
719
728
739
518
0
0
0
0
0
0
332
843
1022
1022
1022
1022
863
780
749
709
713
719
729
508
0
0
0
0
0
0
341
850
1022
1022
1022
1022
867
787
753
717
719
726
734
510
0
0
0
0
0
0
339
846
1022
1022
1022
1022
861
783
749
715
717
721
730
503
0
0
0
0
0
0
339
848
1022
1022
1022
1022
863
777
742
708
713
719
729
503
0
0
0
0
0
0
341
849
1022
1022
1022
1022
862
775
736
703
708
719
729
499
0
0
0
0
0
0
333
843
1022
1022
1022
1022
872
785
745
711
717
728
737
509
0
0
0
0
0
0
348
858
1022
1022
1022
1022
872
784
746
713
718
725
735
504
0
0
0
0
0
0
356
864
1022
1022
1022
1022
878
793
755
724
728
737
747
514
0
0
0
0
0
0
358
870
1022
1022
1022
1022
883
795
752
721
727
734
744
511
0
0
0
0
0
0
361
872
1022
1022
1022
1022
878
792
753
719
726
736
748
513
0
0
0
0
0
0
360
874
1022
1023
1022
1022
873
790
753
724
724
729
742
503
0
0
0
0
0
0
362
872
1022
1022
1022
1022
868
784
746
713
718
728
737
495
0
0
0
0
0
0
350
861
1022
1022
1022
1022
869
782
739
710
716
725
737
493
0
0
0
0
0
0
357
869
1022
1022
1022
1022
868
782
740
711
717
727
739
493
0
0
0
0
0
0
364
879
1022
1022
1022
1022
870
784
747
715
719
727
735
487
0
0
0
0
0
0
370
882
1022
1022
1022
1022
872
788
750
718
724
732
743
496
0
0
0
0
0
0
367
880
1022
1022
1022
1022
864
780
742
708
716
724
735
483
0
0
0
0
0
0
370
886
1022
1022
1022
1022
868
781
742
714
719
727
736
483
0
0
0
0
0
0
369
876
1022
1022
1022
1021
856
775
740
711
716
724
733
480
0
0
0
0
0
0
369
882
1022
1022
1022
1022
864
782
744
715
719
727
736
478
0
0
0
0
0
0
371
887
1022
1022
1022
1021
854
772
734
707
709
717
723
465
0
0
0
0
0
0
378
887
1022
1022
1022
1022
864
788
754
723
728
734
741
478
0
0
0
0
0
0
385
894
1022
1023
1022
1021
861
780
744
713
719
728
739
475
0
0
0
0
0
0
389
902
1022
1022
1022
1022
872
787
749
719
724
729
741
475
0
0
0
0
0
0
391
904
1022
1022
1022
1021
857
777
740
709
715
724
736
467
0
0
0
0
0
0
390
900
1022
1022
1022
1022
862
781
743
714
721
730
737
470
0
0
0
0
0
0
392
903
1022
1022
1022
1022
868
790
748
720
728
735
743
473
0
0
0
0
0
0
403
914
1022
1022
1022
1022
871
789
743
715
723
734
742
469
0
0
0
0
0
0
396
910
1022
1022
1022
1022
866
783
739
715
723
733
743
467
0
0
0
0
0
0
405
920
1022
1022
1022
1022
867
784
741
713
721
727
734
455
0
0
0
0
0
0
398
911
1022
1022
1022
1021
856
776
738
712
719
727
736
457
0
0
0
0
0
0
397
911
1022
1022
1022
1020
853
774
737
708
712
721
728
444
0
0
0
0
0
0
397
915
1022
1022
1022
1021
859
779
737
713
719
732
740
458
0
0
0
0
0
0
419
936
1022
1023
1022
1022
872
792
753
725
729
739
747
459
0
0
0
0
0
0
406
920
1022
1022
1022
1021
856
779
742
715
722
730
739
450
0
0
0
0
0
0
420
929
1022
1022
1022
1021
862
779
743
713
719
728
735
444
0
0
0
0
0
0
411
923
1022
1022
1022
1021
859
782
745
719
728
739
747
456
0
0
0
0
0
0
416
930
1022
1022
1022
1021
857
780
738
713
719
727
732
443
0
0
0
0
0
0
412
928
1022
1022
1022
1021
860
783
744
719
725
735
739
446
0
0
0
0
0
0
417
927
1022
1022
1022
1019
852
774
735
707
712
722
729
434
0
0
0
0
0
0
413
926
1022
1022
1022
1020
856
782
743
713
720
728
734
436
0
0
0
0
0
0
419
931
1022
1022
1022
1003
842
773
739
711
715
723
731
431
0
0
0
0
0
0
421
932
1022
1022
1022
1016
849
781
746
720
723
733
735
436
0
0
0
0
0
0
435
946
1022
1022
1022
1020
856
785
750
721
723
731
733
430
0
0
0
0
0
0
426
938
1022
1023
1022
1007
846
779
742
712
715
724
729
427
0
0
0
0
0
0
429
943
1022
1023
1022
1014
849
772
735
711
716
728
732
431
0
0
0
0
0
0
433
947
1022
1022
1022
1020
858
782
742
716
722
732
738
431
0
0
0
0
0
0
433
948
1022
1022
1022
1019
855
780
743
718
724
737
741
432
0
0
0
0
0
0
441
956
1023
1022
1022
1021
861
786
747
719
726
736
739
432
0
0
0
0
0
0
434
947
1022
1023
1022
1018
852
775
735
707
718
731
735
424
0
0
0
0
0
0
436
952
1022
1022
1022
1017
855
780
742
719
725
732
736
423
0
0
0
0
0
0
437
952
1022
1022
1022
1005
848
775
735
711
718
728
730
413
0
0
0
0
0
0
437
954
1022
1022
1022
1008
848
775
739
715
719
729
732
414
0
0
0
0
0
0
444
956
1022
1022
1022
1003
847
782
748
722
728
735
736
418
0
0
0
0
0
0
444
960
1022
1022
1022
1008
852
780
742
717
721
733
735
418
0
0
0
0
0
0
443
959
1022
1023
1022
1001
847
774
736
712
716
724
726
402
0
0
0
0
0
0
444
958
1023
1022
1022
1003
847
772
732
707
717
727
730
407
0
0
0
0
0
0
444
959
1022
1023
1022
996
845
772
735
714
716
727
729
405
0
0
0
0
0
0
440
956
1023
1023
1022
991
840
768
725
707
716
727
728
404
0
0
0
0
0
0
447
965
1022
1022
1022
1006
851
776
737
712
722
734
734
409
0
0
0
0
0
0
455
973
1022
1023
1022
1007
847
777
741
718
724
735
735
408
0
0
0
0
0
0
452
968
1022
1023
1022
999
847
775
738
716
724
732
735
403
0
0
0
0
0
0
457
969
1022
1022
1022
1008
849
775
737
713
721
732
733
401
0
0
0
0
0
0
456
972
1022
1022
1022
992
844
780
742
719
723
732
732
400
0
0
0
0
0
0
467
981
1022
1023
1022
993
842
782
747
719
724
735
735
396
0
0
0
0
0
0
462
979
1022
1022
1022
998
847
779
737
716
720
730
730
393
0
0
0
0
0
0
468
981
1022
1022
1022
1001
848
776
734
712
719
730
731
393
0
0
0
0
0
0
465
979
1022
1023
1022
995
845
780
742
718
725
735
732
396
0
0
0
0
0
0
468
983
1023
1023
1022
991
841
771
732
711
716
726
724
387
0
0
0
0
0
0
468
985
1022
1022
1022
993
845
774
734
711
717
728
727
381
0
0
0
0
0
0
472
990
1022
1022
1022
994
844
775
735
718
722
732
729
382
0
0
0
0
0
0
467
980
1022
1022
1022
988
841
772
731
713
719
731
728
384
0
0
0
0
0
0
470
983
1022
1022
1022
989
845
774
735
716
721
733
730
380
0
0
0
0
0
0
467
984
1022
1022
1022
982
834
770
734
713
717
727
722
374
0
0
0
0
0
0
476
988
1022
1022
1022
991
842
771
728
708
713
725
722
373
0
0
0
0
0
0
476
990
1022
1023
1022
982
837
768
730
711
719
731
726
380
0
0
0
0
0
0
477
991
1022
1022
1022
983
841
777
736
714
720
732
727
374
0
0
0
0
0
0
481
995
1022
1023
1022
985
841
779
740
721
725
734
728
372
0
0
0
0
0
0
481
996
1022
1022
1022
981
834
764
726
705
710
721
716
361
0
0
0
0
0
0
479
994
1022
1022
1022
987
845
777
737
718
726
734
727
369
0
0
0
0
0
0
491
1007
1023
1023
1022
1002
852
782
741
725
730
740
734
377
0
0
0
0
0
0
492
1006
1022
1023
1022
990
844
776
736
718
724
736
728
369
0
0
0
0
0
0
492
1008
1023
1023
1022
992
848
780
742
721
725
737
730
370
0
0
0
0
0
0
492
1006
1022
1022
1022
978
833
763
727
706
711
722
717
355
0
0
0
0
0
0
487
1003
1022
1022
1022
977
833
766
727
707
716
728
720
355
0
0
0
0
0
0
492
1006
1022
1023
1022
973
829
772
734
716
719
728
716
355
0
0
0
0
0
0
492
1006
1022
1023
1022
978
838
781
744
728
731
744
736
375
0
0
0
0
0
0
500
1011
1022
1023
1022
983
840
774
735
715
720
733
726
356
0
0
0
0
0
0
493
1008
1023
1022
1022
977
834
767
726
707
716
727
721
352
0
0
0
0
0
0
500
1011
1022
1022
1022
983
841
777
735
719
726
740
731
364
0
0
0
0
0
8
512
1019
1022
1022
1022
992
847
780
739
721
728
740
729
355
0
0
0
0
0
0
499
1010
1022
1022
1022
980
839
772
730
713
720
733
723
353
0
0
0
0
0
1
502
1013
1022
1022
1022
983
841
775
734
719
723
732
723
348
0
0
0
0
0
0
499
1012
1022
1022
1022
977
832
767
723
705
713
730
721
348
0
0
0
0
0
0
504
1014
1023
1022
1022
975
836
769
727
710
717
729
719
347
0
0
0
0
0
0
498
1010
1022
1022
1022
968
828
772
734
716
719
732
721
345
0
0
0
0
0
4
507
1015
1022
1023
1022
980
839
775
733
716
725
738
728
352
0
0
0
0
0
14
512
1017
1022
1023
1022
984
842
773
736
718
727
739
728
352
0
0
0
0
0
24
515
1019
1023
1023
1022
986
844
777
735
720
725
736
723
345
0
0
0
0
0
10
514
1017
1023
1022
1022
979
839
770
729
711
719
731
720
342
0
0
0
0
0
0
505
1015
1022
1023
1022
972
833
768
728
712
722
732
719
339
0
0
0
0
0
0
508
1016
1023
1023
1022
972
832
767
726
710
719
732
721
339
0
0
0
0
0
0
510
1017
1022
1023
1022
973
834
769
727
713
719
729
718
336
0
0
0
0
0
6
511
1017
1022
1023
1022
975
835
771
726
710
719
729
715
337
0
0
0
0
0
10
515
1018
1022
1023
1022
974
833
766
725
711
718
731
718
336
0
0
0
0
0
1
508
1016
1022
1022
1022
968
830
764
724
709
715
727
715
330
0
0
0
0
0
7
513
1017
1022
1023
1022
970
830
776
736
718
720
732
719
335
0
0
0
0
0
28
520
1019
1022
1023
1022
974
832
771
730
714
718
730
718
335
0
0
0
0
0
19
515
1019
1022
1022
1022
973
833
769
731
713
721
731
715
330
0
0
0
0
0
28
521
1020
1022
1022
1022
978
837
775
736
720
726
737
722
337
0
0
0
0
0
27
520
1019
1022
1023
1022
966
828
767
728
710
718
728
713
329
0
0
0
0
0
22
514
1017
1022
1022
1022
972
838
776
735
718
724
736
719
337
0
0
0
0
0
25
519
1019
1022
1022
1022
967
829
766
725
707
713
727
709
327
0
0
0
0
0
34
519
1019
1023
1022
1022
972
837
775
734
721
728
739
722
335
0
0
0
0
0
41
527
1021
1023
1023
1022
979
839
771
724
711
718
729
711
325
0
0
0
0
0
29
523
1020
1022
1023
1022
966
825
761
722
709
716
726
711
324
0
0
0
0
0
10
512
1018
1023
1023
1022
967
831
770
727
714
720
730
714
322
0
0
0
0
0
30
523
1020
1022
1023
1022
962
824
764
723
706
711
722
707
316
0
0
0
0
0
22
516
1018
1022
1023
1022
967
832
769
729
712
716
725
706
319
0
0
0
0
0
37
525
1020
1022
1022
1022
974
840
781
737
722
732
742
724
341
0
0
0
0
0
22
497
998
1023
1022
1022
920
785
728
690
675
683
698
687
311
0
0
0
0
0
48
514
1006
1023
1023
1022
965
835
774
736
721
731
743
728
372
0
0
0
0
0
19
479
956
1022
1022
1022
975
841
771
725
709
713
720
705
380
0
0
0
0
0
21
470
952
1022
1022
1022
1022
900
835
791
772
771
772
751
406
0
0
0
0
0
9
474
958
1022
1022
1022
982
847
772
725
707
712
724
709
364
0
0
0
0
0
0
463
958
1022
1022
1022
1004
871
812
771
750
748
755
737
384
0
0
0
0
0
56
508
1001
1022
1022
1022
991
855
794
752
733
736
747
729
368
0
0
0
0
0
34
498
997
1022
1022
1022
979
843
784
739
718
721
729
711
342
0
0
0
0
0
0
474
975
1022
1022
1022
956
823
761
720
706
711
722
705
332
0
0
0
0
0
23
504
1005
1022
1022
1022
970
836
771
732
716
721
734
718
340
0
0
0
0
0
39
512
1015
1023
1022
1022
968
834
770
730
715
723
732
712
330
0
0
0
0
0
13
504
1011
1023
1023
1022
956
819
761
721
707
713
724
704
324
0
0
0
0
0
45
527
1019
1022
1023
1022
972
839
774
732
720
729
740
723
332
0
0
0
0
0
47
524
1018
1023
1023
1022
957
819
756
715
700
708
717
698
312
0
0
0
0
0
28
517
1017
1022
1023
1022
960
825
764
724
711
720
732
711
321
0
0
0
0
0
49
527
1020
1022
1022
1022
967
838
778
732
720
726
737
716
324
0
0
0
0
0
49
532
1020
1022
1022
1022
963
827
764
725
712
720
732
712
320
0
0
0
0
0
48
530
1020
1022
1022
1022
961
829
779
738
721
726
736
715
320
0
0
0
0
0
67
547
1022
1022
1023
1022
975
838
774
734
724
730
737
716
322
0
0
0
0
0
62
545
1022
1022
1023
1022
963
829
765
722
712
716
730
708
313
0
0
0
0
0
48
528
1020
1022
1022
1022
950
812
748
709
697
700
710
691
295
0
0
0
0
0
0
503
1009
1022
1022
1022
927
791
732
690
679
686
700
679
283
0
0
0
0
0
0
499
1007
1022
1022
1022
930
797
734
694
684
692
705
686
288
0
0
0
0
0
38
525
1020
1022
1023
1022
954
822
761
721
707
717
730
706
312
0
0
0
0
0
71
561
1022
1022
1022
1022
1002
863
799
757
744
750
764
741
341
0
0
0
0
0
62
541
1022
1022
1022
1022
961
829
769
729
717
723
734
711
315
0
0
0
0
0
56
541
1022
1022
1022
1022
976
846
783
746
732
738
750
727
327
0
0
0
0
0
73
551
1022
1022
1022
1022
973
836
790
750
737
739
747
720
319
0
0
0
0
0
82
562
1022
1023
1023
1022
972
838
787
748
733
737
748
719
319
0
0
0
0
0
78
560
1022
1022
1022
1022
974
841
784
738
729
734
743
722
317
0
0
0
0
0
73
558
1022
1022
1022
1022
969
832
775
735
721
729
738
714
310
0
0
0
0
0
71
553
1022
1022
1023
1022
969
837
777
740
731
736
748
725
322
0
0
0
0
0
81
563
1022
1022
1022
1022
972
837
774
732
722
729
741
717
312
0
0
0
0
0
67
554
1022
1022
1022
1022
966
834
774
732
724
732
743
717
311
0
0
0
0
0
75
560
1022
1022
1022
1022
964
832
769
729
718
720
731
705
299
0
0
0
0
0
71
553
1022
1022
1022
1022
963
831
773
730
719
728
738
711
300
0
0
0
0
0
63
549
1022
1022
1022
1022
957
824
765
723
710
714
726
695
287
0
0
0
0
0
67
551
1022
1022
1022
1022
957
824
769
730
719
723
731
706
295
0
0
0
0
0
61
545
1022
1022
1022
1022
953
822
764
723
711
717
727
701
292
0
0
0
0
0
60
548
1022
1022
1022
1022
956
822
763
720
711
719
732
706
297
0
0
0
0
0
67
555
1022
1022
1022
1022
955
821
759
716
711
716
728
704
294
0
0
0
0
0
65
550
1022
1022
1022
1022
954
822
760
719
708
716
728
700
288
0
0
0
0
0
67
554
1022
1023
1023
1022
958
824
766
724
711
718
732
701
289
0
0
0
0
0
68
559
1022
1022
1022
1022
959
825
766
723
714
721
732
704
288
0
0
0
0
0
68
558
1022
1022
1022
1022
954
823
765
723
716
725
737
707
290
0
0
0
0
0
73
561
1022
1022
1022
1022
956
824
762
719
711
718
729
700
288
0
0
0
0
0
73
560
1022
1022
1022
1022
952
821
764
720
711
719
728
699
282
0
0
0
0
0
68
557
1022
1022
1022
1022
950
815
761
723
712
718
727
697
282
0
0
0
0
0
76
561
1022
1023
1022
1022
953
824
766
723
712
719
731
703
286
0
0
0
0
0
77
566
1022
1022
1022
1022
957
825
764
721
714
721
734
704
284
0
0
0
0
0
65
555
1022
1022
1022
1022
949
819
758
718
709
717
728
700
282
0
0
0
0
0
68
563
1022
1022
1022
1022
952
820
763
720
713
722
734
703
283
0
0
0
0
0
75
563
1022
1022
1022
1022
947
817
758
716
703
711
725
694
272
0
0
0
0
0
73
558
1022
1022
1022
1022
948
816
757
714
704
712
726
696
272
0
0
0
0
0
73
557
1022
1022
1022
1022
948
817
759
716
706
712
726
694
274
0
0
0
0
0
70
561
1022
1022
1022
1022
942
810
755
713
705
711
724
693
271
0
0
0
0
0
68
557
1022
1022
1022
1022
946
814
755
715
707
715
727
694
269
0
0
0
0
0
80
572
1022
1022
1022
1022
958
826
767
726
716
721
734
702
276
0
0
0
0
0
87
576
1022
1022
1022
1022
950
821
776
736
724
728
737
702
274
0
0
0
0
0
90
572
1022
1022
1022
1022
953
822
780
737
726
731
740
704
283
0
0
0
0
0
98
591
1022
1022
1023
1022
965
833
784
744
735
742
752
719
288
0
0
0
0
0
102
591
1022
1022
1022
1022
970
839
784
743
736
744
756
723
296
0
0
0
0
0
99
588
1022
1022
1022
1022
964
831
774
732
724
728
742
708
280
0
0
0
0
0
91
580
1022
1022
1022
1022
962
835
777
733
725
728
740
708
279
0
0
0
0
0
94
584
1022
1022
1022
1022
960
827
770
725
716
724
739
704
277
0
0
0
0
0
89
582
1022
1022
1022
1022
958
830
777
732
724
728
740
705
272
0
0
0
0
0
90
583
1022
1022
1022
1022
957
824
769
724
713
720
733
702
269
0
0
0
0
0
92
584
1022
1022
1022
1022
954
824
770
730
726
731
744
706
275
0
0
0
0
0
90
580
1022
1022
1022
1022
952
822
774
732
721
723
733
693
257
0
0
0
0
0
92
583
1022
1022
1022
1022
945
810
752
713
708
713
726
689
252
0
0
0
0
0
84
575
1022
1022
1022
1022
942
811
755
714
709
716
727
691
259
0
0
0
0
0
84
579
1022
1022
1022
1022
948
818
761
721
714
718
732
695
258
0
0
0
0
0
84
577
1022
1022
1022
1022
946
818
762
723
716
721
736
700
262
0
0
0
0
0
101
594
1022
1022
1022
1022
955
824
769
727
722
727
736
696
262
0
0
0
0
0
100
589
1022
1022
1022
1022
950
823
768
725
719
726
740
703
266
0
0
0
0
0
103
593
1022
1022
1022
1022
953
824
768
728
721
725
733
691
252
0
0
0
0
0
94
583
1022
1022
1022
1022
944
816
760
717
712
716
729
692
253
0
0
0
0
0
103
591
1022
1022
1022
1022
955
824
773
730
724
729
742
700
260
0
0
0
0
0
103
595
1022
1022
1022
1022
946
816
764
720
712
716
726
684
239
0
0
0
0
0
98
588
1022
1022
1022
1022
940
810
764
722
712
718
728
687
245
0
0
0
0
0
102
595
1022
1022
1022
1022
945
819
768
727
723
728
739
697
253
0
0
0
0
0
103
594
1022
1022
1022
1022
948
821
766
723
716
722
735
691
247
0
0
0
0
0
98
591
1022
1022
1022
1022
945
817
766
726
721
727
742
700
255
0
0
0
0
0
114
606
1022
1022
1022
1022
952
821
769
727
719
723
735
690
247
0
0
0
0
0
108
600
1022
1022
1022
1022
945
816
765
726
718
720
730
688
244
0
0
0
0
0
118
606
1022
1022
1022
1022
943
815
766
722
715
719
732
686
242
0
0
0
0
0
107
598
1022
1022
1022
1022
942
817
765
725
719
725
739
695
249
0
0
0
0
0
117
612
1022
1022
1022
1022
953
825
773
732
726
731
741
696
248
0
0
0
0
0
123
615
1022
1022
1022
1022
950
824
782
739
732
733
744
696
248
0
0
0
0
0
124
615
1022
1022
1022
1022
942
815
769
729
722
727
740
694
245
0
0
0
0
0
124
611
1022
1022
1022
1022
946
820
775
735
729
733
745
696
245
0
0
0
0
0
121
611
1022
1022
1022
1022
946
819
765
721
717
722
734
682
231
0
0
0
0
0
120
610
1022
1022
1022
1022
947
820
771
729
724
730
744
696
242
0
0
0
0
0
118
609
1022
1022
1022
1022
933
807
754
713
709
712
724
676
220
0
0
0
0
0
106
600
1022
1022
1022
1022
936
809
757
712
710
716
727
675
221
0
0
0
0
0
105
597
1022
1022
1022
1022
928
803
752
710
706
710
723
675
224
0
0
0
0
0
115
608
1022
1023
1022
1022
940
815
764
722
715
719
731
682
230
0
0
0
0
0
121
615
1022
1022
1022
1022
939
814
760
718
717
724
736
685
228
0
0
0
0
0
124
620
1022
1022
1022
1022
941
819
765
722
719
726
738
687
227
0
0
0
0
0
126
617
1022
1022
1022
1022
929
805
762
721
716
720
732
677
218
0
0
0
0
0
126
621
1022
1022
1022
1022
932
810
762
720
715
720
733
674
218
0
0
0
0
0
126
622
1022
1022
1022
1022
941
818
768
724
724
729
742
688
227
0
0
0
0
0
141
636
1022
1022
1022
1022
947
824
772
732
729
732
747
688
226
0
0
0
0
0
142
637
1022
1022
1022
1022
951
826
770
725
725
730
742
688
226
0
0
0
0
0
146
641
1022
1022
1022
1022
950
822
772
729
727
730
742
684
221
0
0
0
0
0
135
634
1022
1022
1022
1022
942
818
769
727
724
732
744
687
220
0
0
0
0
0
143
636
1022
1022
1022
1022
937
814
762
719
716
721
733
678
213
0
0
0
0
0
142
638
1022
1022
1022
1022
940
815
761
719
716
724
738
678
210
0
0
0
0
0
139
629
1022
1022
1022
1022
932
809
760
720
718
723
736
673
210
0
0
0
0
0
143
642
1022
1022
1022
1022
940
816
764
722
721
728
743
678
214
0
0
0
0
0
148
645
1022
1022
1022
1022
939
816
764
721
720
726
739
675
207
0
0
0
0
0
151
646
1022
1022
1022
1022
938
816
777
732
731
734
744
678
211
0
0
0
0
0
158
648
1022
1022
1022
1022
939
818
770
724
725
728
739
674
206
0
0
0
0
0
146
642
1022
1022
1022
1022
940
818
768
723
722
728
740
674
206
0
0
0
0
0
153
649
1022
1022
1022
1022
935
813
761
719
719
726
739
673
203
0
0
0
0
0
153
652
1022
1022
1022
1022
935
815
773
732
731
738
748
681
208
0
0
0
0
0
158
655
1022
1022
1022
1022
931
809
763
717
716
721
732
663
187
0
0
0
0
0
147
647
1022
1022
1022
1022
936
820
764
719
718
726
743
677
205
0
0
0
0
0
171
668
1022
1022
1022
1022
938
817
768
724
723
724
735
666
192
0
0
0
0
0
149
646
1022
1022
1022
1022
926
805
754
712
711
719
734
666
191
0
0
0
0
0
155
652
1022
1022
1023
1022
924
806
752
712
709
715
729
656
182
0
0
0
0
0
149
645
1022
1022
1022
1022
922
802
758
716
715
718
728
656
177
0
0
0
0
0
150
648
1022
1022
1022
1022
908
790
752
711
707
711
724
651
170
0
0
0
0
0
156
652
1022
1022
1022
1022
922
804
757
716
718
723
736
662
180
0
0
0
0
0
168
664
1022
1023
1022
1022
932
814
765
721
722
727
738
663
185
0
0
0
0
0
160
659
1022
1022
1022
1022
919
797
748
709
708
713
724
648
170
0
0
0
0
0
148
645
1022
1022
1022
1022
912
793
748
707
709
712
726
651
172
0
0
0
0
0
166
663
1022
1022
1022
1022
926
807
761
719
720
726
736
657
176
0
0
0
0
0
173
670
1022
1022
1022
1022
933
816
767
726
727
731
742
664
185
0
0
0
0
0
180
675
1022
1022
1022
1022
929
811
760
720
721
729
741
662
182
0
0
0
0
0
179
675
1022
1022
1022
1022
936
821
772
729
729
736
749
670
189
0
0
0
0
0
185
684
1022
1022
1022
1022
931
815
763
719
721
729
741
658
172
0
0
0
0
0
183
678
1022
1022
1022
1022
926
810
771
728
726
728
734
649
160
0
0
0
0
0
178
678
1022
1022
1022
1022
919
803
767
723
722
727
740
654
166
0
0
0
0
0
188
684
1022
1022
1022
1022
921
801
753
709
712
716
727
639
156
0
0
0
0
0
178
677
1022
1022
1022
1022
918
803
757
711
711
713
727
639
150
0
0
0
0
0
172
666
1022
1022
1022
1022
905
789
746
703
706
711
724
637
151
0
0
0
0
0
178
678
1022
1022
1022
1022
911
797
754
711
714
719
731
639
150
0
0
0
0
0
175
673
1022
1022
1023
1022
909
794
751
708
712
719
732
641
155
0
0
0
0
0
193
693
1022
1022
1022
1022
923
809
764
721
720
726
737
642
151
0
0
0
0
0
192
688
1022
1022
1022
1022
915
802
758
717
719
725
738
649
157
0
0
0
0
0
196
700
1022
1022
1022
1022
921
809
766
722
725
728
741
648
158
0
0
0
0
0
200
700
1022
1022
1022
1022
921
809
769
730
729
734
746
651
156
0
0
0
0
0
212
708
1022
1022
1022
1022
928
815
774
732
734
734
747
652
159
0
0
0
0
0
207
704
1022
1022
1022
1022
918
805
763
719
723
728
741
644
150
0
0
0
0
0
201
701
1022
1022
1022
1022
919
805
763
723
727
730
742
641
146
0
0
0
0
0
213
712
1022
1022
1022
1022
927
814
767
725
727
729
743
642
144
0
0
0
0
0
207
708
1022
1022
1023
1022
920
807
763
719
722
727
740
639
140
0
0
0
0
0
205
707
1022
1022
1022
1022
908
798
765
722
722
723
731
627
127
0
0
0
0
0
218
716
1022
1022
1022
1022
913
799
768
723
722
725
734
629
132
0
0
0
0
0
216
715
1022
1022
1022
1022
908
801
769
726
723
725
737
631
131
0
0
0
0
0
209
709
1022
1022
1022
1022
912
799
763
718
718
723
733
623
121
0
0
0
0
0
195
696
1022
1022
1022
1022
892
784
748
704
709
710
719
608
106
0
0
0
0
0
193
695
1022
1022
1022
1022
892
782
742
700
702
704
718
609
108
0
0
0
0
0
195
701
1022
1022
1022
1022
899
789
742
698
700
706
719
610
107
0
0
0
0
0
189
701
1022
1022
1022
1022
893
782
745
701
704
711
726
616
111
0
0
0
0
0
205
706
1022
1022
1022
1022
899
793
755
714
716
719
730
615
110
0
0
0
0
0
210
713
1022
1022
1022
1022
911
801
755
714
717
722
735
623
120
0
0
0
0
0
233
737
1022
1022
1022
1022
920
808
769
728
734
740
752
638
130
0
0
0
0
0
238
746
1022
1022
1022
1022
932
824
780
737
738
741
752
632
121
0
0
0
0
0
228
732
1022
1022
1022
1022
912
805
766
723
724
728
740
622
118
0
0
0
0
0
232
732
1022
1022
1022
1022
910
803
761
718
723
729
739
618
108
0
0
0
0
0
223
726
1022
1022
1022
1022
913
804
766
724
730
734
748
628
117
0
0
0
0
0
233
735
1022
1022
1022
1022
906
801
766
726
728
731
742
617
105
0
0
0
0
0
236
740
1022
1022
1022
1022
912
804
766
723
724
727
739
615
107
0
0
0
0
0
238
743
1022
1022
1022
1022
905
799
762
716
722
726
736
611
99
0
0
0
0
0
233
738
1022
1022
1022
1022
900
798
760
721
725
732
742
615
105
0
0
0
0
0
243
744
1022
1022
1022
1022
915
810
764
726
732
740
752
622
108
0
0
0
0
0
242
748
1022
1022
1022
1022
913
806
764
722
726
729
741
612
100
0
0
0
0
0
242
748
1022
1022
1022
1022
912
807
763
722
729
736
748
616
105
0
0
0
0
0
243
750
1022
1022
1022
1022
902
797
754
716
723
726
737
601
87
0
0
0
0
0
235
738
1022
1022
1022
1022
898
798
759
720
721
728
742
606
95
0
0
0
0
0
244
753
1022
1022
1022
1022
900
792
751
711
716
720
733
598
83
0
0
0
0
0
238
745
1022
1022
1022
1022
908
803
762
721
728
734
747
609
96
0
0
0
0
0
249
756
1022
1022
1022
1022
914
807
767
726
732
737
748
608
93
0
0
0
0
0
256
759
1022
1022
1022
1022
900
796
764
725
728
732
743
603
87
0
0
0
0
0
253
758
1022
1022
1022
1022
899
804
773
733
736
740
748
605
85
0
0
0
0
0
258
767
1022
1022
1022
1022
915
812
770
730
730
737
747
600
85
0
0
0
0
0
260
767
1022
1022
1022
1022
898
792
753
713
722
729
743
596
85
0
0
0
0
0
265
775
1022
1022
1022
1022
915
809
761
721
726
729
740
593
78
0
0
0
0
0
261
771
1022
1022
1023
1022
904
801
756
716
720
727
740
596
80
0
0
0
0
0
270
772
1022
1022
1022
1022
905
800
764
727
734
742
755
605
87
0
0
0
0
0
280
788
1022
1022
1022
1022
928
829
788
749
754
758
765
609
89
0
0
0
0
0
280
785
1022
1022
1022
1022
903
801
754
712
719
724
736
577
55
0
0
0
0
0
251
757
1022
1022
1022
1022
888
784
738
700
706
714
726
572
56
0
0
0
0
0
261
772
1022
1022
1022
1022
892
788
745
708
713
719
730
572
52
0
0
0
0
0
268
778
1022
1022
1022
1022
897
799
761
719
726
732
746
588
69
0
0
0
0
0
270
783
1022
1022
1022
1022
896
797
759
715
722
727
739
579
57
0
0
0
0
0
273
780
1022
1022
1022
1022
897
795
753
712
718
723
734
573
51
0
0
0
0
0
275
785
1022
1022
1022
1022
892
792
750
711
718
724
739
577
55
0
0
0
0
0
275
785
1022
1022
1022
1022
888
788
747
710
715
719
732
563
43
0
0
0
0
0
275
782
1022
1022
1022
1022
887
789
744
704
710
715
726
559
35
0
0
0
0
0
274
782
1022
1022
1022
1022
884
785
744
707
716
720
736
565
43
0
0
0
0
0
268
781
1022
1022
1022
1022
882
783
742
702
710
718
729
561
38
0
0
0
0
0
281
793
1022
1023
1022
1022
890
793
752
714
720
727
737
563
38
0
0
0
0
0
287
798
1022
1022
1022
1022
884
786
748
706
711
713
725
546
22
0
0
0
0
0
280
789
1022
1022
1022
1022
877
782
746
705
708
714
727
546
25
0
0
0
0
0
277
787
1022
1022
1022
1022
869
775
740
703
709
713
723
539
14
0
0
0
0
0
281
789
1022
1022
1022
1022
868
776
741
703
703
707
718
536
11
0
0
0
0
0
283
792
1022
1022
1022
1022
870
780
745
707
712
715
727
542
19
0
0
0
0
0
296
809
1022
1022
1023
1022
879
786
750
711
720
726
737
549
27
0
0
0
0
0
299
809
1022
1022
1022
1022
888
791
750
712
723
728
742
553
29
0
0
0
0
0
304
817
1022
1022
1022
1022
894
799
760
723
729
738
752
561
35
0
0
0
0
0
310
823
1022
1022
1022
1022
888
792
746
709
715
722
733
542
17
0
0
0
0
0
309
822
1022
1022
1022
1022
897
799
759
724
732
740
750
554
31
0
0
0
0
0
315
831
1022
1022
1022
1022
892
796
755
720
728
733
744
548
24
0
0
0
0
0
317
830
1022
1022
1022
1022
892
794
755
717
724
730
739
543
19
0
0
0
0
0
320
833
1022
1022
1022
1022
884
791
749
712
717
724
736
532
8
0
0
0
0
0
319
832
1022
1022
1022
1022
882
794
760
721
726
732
741
537
11
0
0
0
0
0
326
841
1022
1022
1022
1022
880
792
760
723
725
729
738
529
4
0
0
0
0
0
331
843
1022
1022
1022
1022
884
791
752
720
728
734
744
535
13
0
0
0
0
0
325
835
1022
1022
1022
1022
878
788
750
716
720
727
738
530
7
0
0
0
0
0
331
844
1022
1022
1022
1022
888
795
755
719
727
735
745
533
6
0
0
0
0
0
328
843
1022
1022
1022
1022
880
790
748
717
721
729
740
526
5
0
0
0
0
0
339
853
1022
1022
1022
1022
888
794
759
722
728
736
748
535
8
0
0
0
0
0
338
851
1022
1022
1022
1022
884
792
750
716
728
736
750
532
8
0
0
0
0
0
344
858
1022
1022
1022
1022
892
800
759
726
730
737
748
526
4
0
0
0
0
0
334
852
1022
1022
1022
1022
880
789
748
716
724
734
747
526
2
0
0
0
0
0
350
861
1022
1022
1022
1022
883
797
762
727
732
736
745
516
0
0
0
0
0
0
352
864
1022
1022
1022
1022
877
790
755
721
728
736
743
517
0
0
0
0
0
0
342
856
1022
1022
1022
1022
866
775
739
707
711
719
732
503
0
0
0
0
0
0
339
858
1022
1022
1022
1022
873
787
746
717
725
735
744
511
0
0
0
0
0
0
349
864
1022
1022
1022
1022
872
782
741
706
711
723
734
500
0
0
0
0
0
0
344
862
1022
1022
1022
1022
869
779
740
708
717
724
734
499
0
0
0
0
0
0
347
861
1022
1022
1022
1022
867
778
737
704
712
721
734
497
0
0
0
0
0
0
345
858
1022
1022
1022
1022
862
774
736
701
710
717
729
492
0
0
0
0
0
0
353
867
1022
1022
1022
1022
874
789
746
719
725
734
744
507
0
0
0
0
0
0
367
882
1022
1022
1022
1022
876
789
747
715
724
734
746
507
0
0
0
0
0
0
381
896
1022
1022
1022
1022
889
804
762
732
740
746
755
511
0
0
0
0
0
0
377
889
1022
1022
1022
1022
882
794
756
721
729
736
744
500
0
0
0
0
0
0
375
893
1022
1022
1022
1022
874
785
748
716
726
735
745
496
0
0
0
0
0
0
370
888
1022
1022
1022
1022
880
796
755
726
733
742
751
498
0
0
0
0
0
0
382
902
1022
1022
1022
1022
875
787
745
715
721
729
743
490
0
0
0
0
0
0
379
893
1022
1022
1022
1022
873
788
748
718
728
738
747
490
0
0
0
0
0
0
377
895
1022
1022
1022
1022
876
793
751
722
728
737
746
488
0
0
0
0
0
0
380
897
1022
1022
1022
1022
871
785
745
716
723
733
744
481
0
0
0
0
0
0
383
899
1022
1022
1022
1022
868
785
743
711
721
733
743
479
0
0
0
0
0
0
374
891
1022
1022
1022
1022
860
779
740
709
718
728
738
476
0
0
0
0
0
0
384
905
1022
1022
1022
1022
867
782
740
710
717
726
734
467
0
0
0
0
0
0
391
905
1022
1022
1022
1022
865
781
743
714
719
731
744
477
0
0
0
0
0
0
393
911
1022
1022
1022
1022
862
784
749
716
720
729
736
466
0
0
0
0
0
0
389
903
1022
1022
1022
1021
858
785
750
718
725
732
740
465
0
0
0
0
0
0
392
911
1022
1022
1022
1021
856
771
727
702
709
724
733
464
0
0
0
0
0
0
392
911
1022
1022
1022
1022
867
787
748
719
726
731
737
457
0
0
0
0
0
0
395
908
1022
1022
1022
1010
842
761
722
699
707
719
727
446
0
0
0
0
0
0
388
908
1022
1022
1022
1020
851
769
732
705
711
722
730
449
0
0
0
0
0
0
395
909
1022
1022
1022
1020
855
776
735
709
716
724
733
451
0
0
0
0
0
0
407
924
1022
1022
1022
1021
861
781
740
713
720
729
736
451
0
0
0
0
0
0
401
917
1022
1022
1022
1021
859
779
739
712
720
728
736
448
0
0
0
0
0
0
403
921
1022
1022
1022
1021
856
772
730
701
710
723
728
442
0
0
0
0
0
0
412
931
1022
1022
1022
1021
860
783
746
722
731
738
742
444
0
0
0
0
0
0
408
923
1022
1022
1022
1004
840
767
730
702
707
715
722
424
0
0
0
0
0
0
410
925
1022
1022
1022
1016
848
777
739
713
718
725
729
433
0
0
0
0
0
0
412
929
1022
1022
1022
1011
847
770
732
707
711
722
728
427
0
0
0
0
0
0
426
948
1022
1022
1022
1022
868
791
751
725
733
745
753
454
0
0
0
0
0
0
434
948
1022
1022
1022
1019
851
773
733
705
711
719
723
418
0
0
0
0
0
0
423
940
1022
1022
1022
1021
865
790
752
728
732
745
750
445
0
0
0
0
0
0
434
950
1022
1022
1022
1015
844
768
726
700
707
718
724
417
0
0
0
0
0
0
435
953
1022
1022
1022
1021
864
792
755
733
736
744
747
437
0
0
0
0
0
0
440
954
1022
1022
1022
1013
848
773
733
711
718
732
736
425
0
0
0
0
0
0
429
947
1022
1023
1022
1021
868
794
751
724
728
735
738
421
0
0
0
0
0
0
451
962
1022
1022
1022
1001
843
773
738
720
729
742
745
426
0
0
0
0
0
0
443
962
1022
1022
1022
1020
858
794
755
726
726
733
734
411
0
0
0
0
0
0
455
970
1022
1022
1022
1005
849
784
743
719
723
730
731
407
0
0
0
0
0
0
451
967
1022
1022
1022
1003
849
778
739
715
722
730
732
408
0
0
0
0
0
0
440
958
1022
1022
1022
992
838
768
730
707
712
723
724
398
0
0
0
0
0
0
449
968
1022
1022
1022
997
844
770
732
708
718
728
727
403
0
0
0
0
0
0
448
967
1022
1022
1022
989
840
770
732
712
719
727
729
399
0
0
0
0
0
0
458
976
1022
1022
1022
1002
849
775
733
712
719
728
729
397
0
0
0
0
0
0
455
973
1022
1022
1022
994
843
772
732
714
721
733
734
395
0
0
0
0
0
0
463
983
1022
1022
1022
1010
851
776
734
712
721
732
736
398
0
0
0
0
0
0
464
984
1022
1022
1022
1008
852
781
741
722
729
739
742
400
0
0
0
0
0
0
476
991
1022
1022
1022
1003
850
785
748
724
726
734
731
388
0
0
0
0
0
0
467
983
1022
1022
1022
986
840
779
742
719
723
732
728
385
0
0
0
0
0
0
466
986
1022
1022
1022
987
843
774
732
712
719
732
728
382
0
0
0
0
0
0
479
996
1022
1022
1022
1000
851
783
744
721
729
741
737
389
0
0
0
0
0
0
483
999
1022
1022
1022
1003
851
780
741
719
725
738
734
384
0
0
0
0
0
0
483
1002
1022
1022
1022
1001
850
784
745
722
729
740
736
382
0
0
0
0
0
0
483
998
1022
1022
1022
984
839
768
728
708
713
723
718
364
0
0
0
0
0
0
478
996
1022
1022
1022
988
843
771
729
709
719
734
727
366
0
0
0
0
0
0
468
986
1022
1022
1022
970
825
757
716
699
707
717
711
354
0
0
0
0
0
0
482
999
1022
1022
1022
984
841
773
731
712
721
732
725
364
0
0
0
0
0
0
482
998
1022
1022
1022
972
828
770
733
711
715
724
720
359
0
0
0
0
0
0
494
1008
1022
1022
1022
979
834
778
739
716
720
729
720
355
0
0
0
0
0
0
489
1003
1022
1022
1022
980
839
772
731
712
720
733
724
361
0
0
0
0
0
0
503
1015
1022
1022
1022
982
839
774
736
717
720
729
719
348
0
0
0
0
0
0
486
999
1022
1022
1022
956
810
744
703
685
691
703
696
333
0
0
0
0
0
1
504
1016
1022
1022
1022
1008
857
793
756
739
744
755
745
374
0
0
0
0
0
27
509
1014
1022
1022
1022
973
832
771
729
710
713
720
711
339
0
0
0
0
0
1
506
1016
1022
1022
1022
1006
861
796
755
744
753
764
755
386
0
0
0
0
0
68
550
1022
1022
1022
1022
1021
875
809
769
752
756
766
751
374
0
0
0
0
0
43
526
1021
1022
1022
1022
994
852
785
748
734
742
753
742
361
0
0
0
0
0
52
533
1021
1022
1022
1022
1006
857
796
755
735
739
747
731
347
0
0
0
0
0
35
518
1018
1022
1022
1022
970
829
775
736
716
719
728
709
324
0
0
0
0
0
16
510
1017
1022
1022
1022
960
821
761
719
700
705
716
702
317
0
0
0
0
0
0
499
1012
1022
1022
1022
957
819
756
717
703
711
724
707
322
0
0
0
0
0
24
518
1019
1022
1022
1022
969
831
764
723
708
713
725
709
320
0
0
0
0
0
5
511
1018
1022
1022
1022
967
828
766
723
710
718
732
716
332
0
0
0
0
0
48
533
1022
1022
1022
1022
975
836
771
730
716
720
732
714
317
0
0
0
0
0
17
513
1019
1022
1022
1022
966
828
765
725
713
721
734
717
327
0
0
0
0
0
48
534
1022
1022
1022
1022
969
830
768
725
711
715
727
711
319
0
0
0
0
0
46
529
1021
1022
1022
1022
966
829
768
728
715
722
735
718
322
0
0
0
0
0
46
530
1022
1022
1022
1022
969
831
770
726
712
718
726
706
307
0
0
0
0
0
38
522
1020
1022
1022
1022
952
814
760
722
704
708
716
693
290
0
0
0
0
0
23
519
1019
1022
1022
1022
946
809
750
710
696
699
711
689
287
0
0
0
0
0
23
520
1020
1022
1022
1022
947
809
748
707
696
700
711
691
288
0
0
0
0
0
28
522
1020
1022
1022
1022
948
811
755
717
704
712
724
704
299
0
0
0
0
0
52
538
1022
1022
1022
1022
966
830
768
729
717
723
735
715
306
0
0
0
0
0
61
549
1022
1022
1022
1022
967
832
771
731
722
729
740
716
309
0
0
0
0
0
68
554
1022
1022
1022
1022
968
835
775
735
723
731
744
721
307
0
0
0
0
0
78
567
1022
1022
1022
1022
974
839
776
736
726
732
742
716
304
0
0
0
0
0
75
562
1022
1022
1022
1022
970
834
774
733
721
728
741
715
301
0
0
0
0
0
76
562
1022
1022
1022
1022
968
836
777
732
723
728
740
713
298
0
0
0
0
0
76
568
1022
1022
1022
1022
972
838
778
736
729
733
744
716
298
0
0
0
0
0
86
574
1022
1022
1022
1022
966
832
782
743
728
735
745
711
291
0
0
0
0
0
89
576
1022
1022
1022
1022
968
835
790
749
737
739
749
718
293
0
0
0
0
0
97
583
1022
1022
1022
1022
966
834
780
736
727
730
743
710
282
0
0
0
0
0
85
571
1022
1022
1022
1022
961
830
772
730
721
727
737
704
278
0
0
0
0
0
84
572
1022
1022
1022
1022
959
825
763
719
712
717
729
695
270
0
0
0
0
0
89
577
1022
