482
500
534
526
530
525
525
522
537
553
531
526
465
487
490
507
497
489
476
475
470
506
535
538
533
531
518
526
538
551
531
523
459
485
485
507
498
490
469
470
475
507
536
536
534
532
519
527
537
551
527
523
462
489
492
501
503
487
465
472
483
510
529
536
529
518
521
520
543
552
536
524
458
481
488
504
501
491
474
474
473
499
526
535
530
528
521
524
548
553
528
527
464
482
484
503
501
492
476
473
480
507
532
527
528
520
522
525
545
551
534
524
463
483
492
501
490
495
469
467
481
506
536
532
530
522
528
529
552
551
539
524
455
477
491
506
499
479
465
476
479
510
539
534
535
534
516
522
539
552
541
525
457
480
492
508
497
484
468
472
469
515
534
538
534
519
526
523
548
555
534
520
456
487
494
506
498
476
465
463
476
507
545
536
528
526
523
528
552
547
537
525
455
480
487
498
500
487
469
470
475
512
539
542
529
523
529
526
548
552
550
528
455
480
488
497
501
480
464
470
467
514
537
541
539
524
518
524
546
550
536
527
454
482
491
506
500
483
463
463
481
508
540
542
535
515
522
532
544
553
539
525
459
481
486
506
498
483
462
472
472
511
537
540
536
532
514
528
550
555
538
518
461
479
491
499
497
484
465
473
468
506
540
544
533
521
524
527
547
561
543
521
448
478
489
499
499
488
464
462
474
508
542
539
544
528
529
530
545
555
533
525
454
476
484
497
492
482
467
472
479
510
546
539
534
515
523
527
551
543
537
528
452
480
489
504
494
483
465
468
473
515
536
535
536
521
524
532
546
549
533
521
454
479
490
498
500
486
472
473
475
504
534
538
533
524
526
532
553
546
545
519
452
474
488
505
491
487
471
476
470
508
539
533
536
527
522
525
550
554
532
520
456
484
496
503
489
486
462
480
477
511
532
532
534
526
527
525
547
547
538
521
465
478
492
500
506
476
467
476
477
508
537
530
541
519
526
524
546
553
529
522
464
484
490
502
498
479
466
475
480
502
529
536
531
525
521
531
540
549
535
516
459
487
485
504
501
485
467
470
475
512
543
528
528
522
519
521
549
556
539
519
460
488
484
496
497
482
480
477
482
512
533
535
536
529
523
520
543
554
527
523
457
487
495
503
503
483
471
477
479
517
532
534
537
520
523
527
542
549
533
519
462
480
492
504
499
486
468
475
481
506
535
532
528
531
522
526
550
546
532
519
464
489
492
512
499
478
466
477
480
504
537
536
536
521
523
529
551
558
530
520
461
484
486
500
498
475
467
476
474
510
534
539
536
526
526
527
543
542
531
522
460
488
492
514
499
486
468
468
473
507
540
534
539
527
527
519
547
550
532
519
455
479
486
499
500
490
472
473
472
508
533
540
530
525
516
521
544
545
538
522
456
480
492
504
498
483
469
477
484
511
537
536
527
524
520
527
543
550
534
519
465
486
485
502
500
483
468
478
482
513
537
542
531
518
515
522
544
548
535
521
458
489
490
500
503
480
465
473
479
511
531
537
539
531
521
524
546
544
537
520
462
484
488
501
494
485
459
480
475
512
536
534
528
534
520
520
543
553
537
518
467
481
484
508
498
478
473
474
477
515
541
529
528
524
522
527
537
548
542
528
455
489
490
504
496
489
470
478
470
505
531
537
529
527
523
528
550
554
540
518
460
484
484
499
496
483
464
472
481
520
543
531
534
530
519
525
548
548
528
518
466
480
494
506
498
481
471
468
480
511
532
539
537
523
525
525
544
548
530
519
461
481
494
506
496
480
472
475
480
511
537
532
535
519
521
531
543
549
535
526
459
486
486
499
504
484
472
476
472
516
534
537
527
517
519
519
541
556
536
511
465
481
496
499
498
491
472
471
478
512
532
533
535
532
527
521
551
545
528
518
461
489
490
504
497
484
468
476
474
514
539
534
533
528
525
527
547
549
528
518
463
484
490
500
494
489
469
478
476
515
539
535
531
522
518
531
545
547
533
518
463
482
492
500
499
479
464
467
478
516
541
537
524
529
522
528
548
547
535
520
467
489
485
501
492
486
470
471
469
512
546
537
528
523
519
530
542
548
536
526
467
485
488
501
499
478
466
473
482
515
532
538
529
521
528
531
550
547
537
511
457
488
488
498
499
487
472
476
474
511
540
534
533
524
519
525
544
551
529
517
471
483
488
500
494
480
473
473
475
512
548
538
532
525
522
536
542
547
535
523
464
482
489
504
492
482
468
471
473
511
538
545
533
524
520
533
549
543
528
514
464
487
492
498
499
480
463
476
475
524
536
541
528
519
521
524
547
545
538
515
467
487
490
503
494
480
465
472
475
514
538
532
532
523
516
531
551
544
545
517
461
483
486
503
497
489
467
472
479
512
535
528
533
525
519
531
549
544
536
515
465
481
489
501
496
487
469
476
471
514
541
537
536
523
511
532
551
546
544
514
465
484
485
504
500
480
465
473
472
514
540
533
535
518
530
527
554
549
543
520
455
483
492
496
497
480
464
476
479
509
540
541
531
525
522
534
546
540
538
519
461
482
483
508
501
478
467
469
483
516
543
542
530
527
523
525
553
544
535
513
459
478
482
503
499
479
462
478
483
515
541
531
532
529
523
526
549
537
539
509
459
482
493
506
497
479
470
472
472
515
542
539
534
524
528
531
544
545
533
512
459
490
489
498
502
483
461
475
475
508
538
533
540
522
525
522
544
542
545
516
455
481
489
506
497
483
473
470
476
519
538
534
532
524
523
532
546
548
533
523
460
484
489
501
497
483
460
477
478
519
532
537
528
527
518
528
556
544
538
507
467
484
480
499
502
482
466
470
476
516
543
535
534
527
524
523
555
548
534
516
466
491
478
498
504
482
469
468
478
517
540
539
520
522
532
520
553
542
534
518
461
479
493
502
495
484
477
474
476
513
540
537
528
523
517
532
548
542
529
510
470
481
484
504
501
492
478
474
475
510
538
536
527
527
521
531
549
540
532
513
460
483
484
500
496
487
468
472
475
520
541
535
530
519
524
525
550
548
533
509
470
484
488
498
493
485
479
479
481
518
537
534
531
524
526
524
546
542
537
512
467
490
495
501
498
481
472
472
480
520
540
531
533
527
519
530
540
544
536
518
469
487
492
504
489
480
465
472
478
521
539
535
533
521
519
532
557
539
539
514
465
487
487
497
502
478
467
472
474
518
535
540
539
521
520
525
553
545
531
515
463
482
490
506
497
476
463
472
487
516
533
532
534
521
521
531
553
551
538
509
467
481
485
499
502
481
465
464
484
520
540
534
534
524
527
527
551
539
537
506
473
483
491
506
495
476
471
469
482
522
545
531
528
522
527
527
554
539
524
519
465
483
489
506
498
483
472
472
475
519
536
529
524
527
522
526
556
544
535
511
464
487
489
497
494
483
471
471
480
512
542
532
528
524
525
523
555
540
530
514
460
487
493
507
504
479
465
475
482
513
535
541
535
529
521
524
552
537
540
515
466
487
488
502
501
471
463
471
476
515
541
542
532
527
524
528
552
539
532
512
467
479
488
505
505
476
459
470
477
518
540
536
524
521
524
529
560
533
531
515
463
488
491
501
499
482
465
474
479
516
541
526
531
517
524
531
558
540
537
508
464
476
496
504
497
484
475
480
472
514
531
536
532
528
519
523
552
540
539
519
464
489
487
507
496
477
465
472
476
511
543
530
536
526
521
524
548
547
536
503
464
478
490
507
495
492
468
471
487
519
534
529
534
524
519
532
559
544
535
509
468
474
493
504
493
479
471
473
476
520
541
529
525
529
527
529
551
547
536
503
463
485
492
498
499
476
469
472
485
511
539
540
527
525
525
526
558
540
537
515
464
482
496
505
491
477
470
469
478
512
536
536
535
524
524
529
556
544
536
505
480
482
495
508
498
482
468
467
473
521
535
542
530
521
525
529
548
540
528
509
465
487
481
501
503
487
470
476
475
525
536
534
529
527
526
524
546
539
534
509
470
487
488
504
497
476
462
472
478
519
537
535
535
526
524
524
559
549
532
508
469
480
486
501
498
484
460
470
479
519
542
539
534
524
524
529
553
545
527
513
463
487
489
504
499
481
467
473
482
517
526
535
535
522
517
526
556
541
534
510
473
486
492
507
496
483
465
475
471
519
540
534
531
526
522
534
548
539
534
507
463
480
477
510
497
482
464
475
481
524
546
533
525
524
521
527
551
537
540
500
474
483
495
502
496
473
470
478
483
518
535
533
533
525
521
531
552
537
531
504
474
481
488
499
500
477
465
471
479
522
541
545
523
523
523
526
556
543
540
507
471
485
486
499
490
476
467
475
476
521
544
533
536
519
521
536
548
542
536
507
477
484
489
505
490
477
472
474
472
525
533
531
535
523
521
535
555
542
534
506
466
485
480
500
496
482
471
473
482
518
534
535
531
522
527
534
552
544
538
505
466
477
486
503
495
487
470
471
481
522
543
532
531
526
523
531
549
537
532
503
469
481
490
502
495
480
461
474
480
517
538
537
532
528
523
526
551
543
528
500
477
482
495
489
498
476
473
467
470
522
541
541
527
518
520
531
558
539
533
500
471
488
482
502
498
483
470
476
477
521
540
534
529
526
528
526
550
542
537
497
474
478
484
501
489
478
469
479
485
524
535
530
532
526
524
539
553
536
531
499
470
492
491
502
489
476
465
475
481
527
544
545
533
523
519
532
553
542
527
503
476
485
482
499
499
482
469
477
479
516
542
528
529
529
524
531
552
537
533
501
476
483
485
501
496
484
469
478
482
524
536
531
528
523
520
531
555
540
537
498
475
484
483
499
495
481
472
475
476
519
539
529
533
530
521
534
556
540
535
502
471
487
489
500
493
475
468
475
475
527
535
537
532
525
527
530
549
539
530
504
472
484
490
501
499
478
470
471
483
517
538
538
528
531
521
527
553
534
530
504
472
486
494
499
498
476
463
473
476
524
536
535
534
529
521
528
557
542
537
498
476
481
488
496
494
484
467
478
479
527
543
536
530
519
524
527
551
546
528
500
475
482
486
501
500
477
467
473
479
523
530
531
524
523
524
536
558
546
536
499
472
490
496
495
494
478
470
478
479
530
537
540
528
527
515
526
557
536
536
500
473
479
490
499
495
472
460
475
481
525
544
530
527
524
523
539
554
538
537
490
480
480
495
505
494
479
469
463
479
532
541
537
531
525
523
527
548
545
536
500
478
486
490
494
497
483
462
473
475
524
540
536
529
528
520
532
549
537
541
499
482
483
482
501
497
478
477
465
475
525
538
532
532
529
526
532
549
540
537
499
475
481
489
508
499
476
468
467
475
522
540
532
530
527
530
532
555
543
537
494
473
483
480
497
488
482
468
470
486
525
534
538
533
528
516
527
559
537
536
499
477
481
491
497
493
478
473
469
474
524
537
537
534
525
520
528
551
537
536
494
467
487
489
502
494
477
471
471
482
526
538
540
528
519
521
535
553
538
533
490
480
489
486
504
497
483
465
472
485
526
533
533
528
524
522
533
557
534
526
498
475
487
492
502
505
475
466
468
480
528
546
532
531
522
515
532
556
540
532
493
474
480
487
507
495
475
468
474
482
523
541
538
531
515
524
529
557
540
538
497
475
485
489
503
495
471
464
475
487
529
532
536
530
521
528
541
556
542
532
489
477
485
492
496
494
481
469
473
479
525
537
528
530
527
525
542
552
536
542
495
475
486
489
499
491
471
467
470
476
525
547
536
527
518
520
537
559
534
537
500
478
486
487
498
493
480
468
471
479
526
546
536
526
526
519
536
550
540
533
490
476
483
492
503
498
476
470
467
474
523
545
542
527
523
516
529
557
542
543
496
477
480
492
502
486
473
476
470
484
524
548
532
523
519
522
535
557
537
534
488
467
482
489
499
494
476
470
476
476
536
535
536
529
524
525
535
556
538
525
496
476
483
494
505
495
473
469
477
475
527
543
537
540
521
519
536
557
543
534
489
472
483
492
499
494
475
461
476
486
525
538
528
539
524
523
538
555
530
537
489
479
486
491
502
498
478
466
472
473
524
536
534
529
525
521
540
554
534
531
489
477
489
484
500
498
477
462
468
479
525
543
540
532
525
515
539
555
538
535
482
479
491
487
499
490
478
468
473
478
534
539
543
529
531
523
533
556
533
528
492
472
483
486
499
497
478
476
470
479
529
540
539
531
527
524
532
554
537
530
485
475
481
491
494
500
487
470
470
476
532
540
536
536
526
525
530
556
533
529
491
479
483
494
500
492
479
471
469
477
525
540
539
530
527
525
540
559
534
526
483
481
484
496
499
490
480
470
468
476
532
544
532
530
528
516
529
552
541
534
492
478
478
488
498
499
475
464
474
477
529
538
544
531
524
524
532
552
540
532
477
477
484
482
506
496
473
465
469
479
532
540
537
535
527
521
539
551
543
534
489
475
476
489
499
499
478
468
475
483
537
540
534
521
524
522
541
559
540
529
483
480
487
489
492
489
472
469
471
485
529
544
538
529
523
524
541
556
541
534
486
476
487
492
501
492
476
464
470
476
529
539
535
531
525
527
538
552
543
530
480
481
481
496
505
498
472
461
470
478
530
545
538
536
518
531
538
553
534
526
479
477
484
496
500
489
472
466
478
482
532
542
532
533
530
530
540
559
536
528
482
478
481
490
501
492
469
467
477
481
535
540
527
525
527
519
530
557
544
533
486
480
482
483
506
492
480
464
464
485
534
541
535
537
528
515
532
558
538
535
480
483
487
492
500
495
477
470
462
479
533
537
534
527
520
527
538
562
537
536
479
473
483
494
492
497
478
469
473
484
531
538
534
529
527
523
542
561
539
529
475
476
487
494
491
489
476
467
469
486
530
550
537
525
526
519
535
560
540
532
473
477
486
494
504
497
465
466
476
477
527
536
525
533
530
530
538
554
541
533
477
474
475
490
507
499
475
471
469
481
529
542
535
528
526
531
539
556
541
531
480
480
489
484
500
497
470
468
465
480
532
539
540
531
527
528
534
552
544
529
477
474
486
492
502
485
473
468
473
487
526
545
536
520
527
519
536
562
539
536
480
479
480
488
493
493
470
467
481
489
531
533
536
532
525
534
537
551
531
534
472
482
471
489
501
501
474
472
468
484
534
540
531
528
519
525
539
552
547
531
481
482
484
490
503
499
472
465
467
476
531
536
542
534
519
524
539
553
545
540
473
476
482
497
501
486
473
460
471
481
534
541
539
529
520
528
539
561
543
535
476
481
483
489
501
499
468
468
471
479
532
539
540
528
526
518
538
562
537
532
474
478
489
493
506
488
476
462
462
479
536
543
536
527
530
520
542
560
536
535
473
477
477
487
504
494
470
466
465
487
539
547
534
527
517
522
543
561
545
539
475
471
482
494
500
493
467
463
473
481
532
545
535
527
522
524
542
557
540
533
473
478
482
487
502
494
463
466
469
484
534
544
540
522
524
526
542
557
541
535
477
474
483
492
498
491
475
471
470
483
531
538
540
529
524
522
535
560
541
527
471
480
488
493
496
491
465
468
471
481
536
540
533
534
528
521
541
560
537
534
475
473
488
486
499
485
469
471
471
482
539
546
536
524
521
525
539
556
543
532
477
480
483
495
492
490
471
468
471
487
535
544
538
528
516
526
532
562
545
532
469
472
481
491
497
491
477
470
467
477
535
543
533
529
527
524
537
563
536
531
478
486
481
485
499
487
468
464
473
484
537
540
536
535
530
524
538
557
549
534
470
481
480
494
497
481
472
464
464
479
532
541
541
526
518
527
546
561
544
534
464
479
494
490
499
494
467
462
463
488
542
542
534
526
521
526
540
559
541
535
463
479
480
498
497
490
467
465
468
476
531
550
537
530
524
522
541
560
542
527
468
476
481
496
502
488
467
467
468
477
540
550
538
532
526
524
543
561
543
533
467
476
487
496
504
481
471
463
470
476
542
545
538
531
525
525
545
561
543
538
467
469
475
483
501
496
470
467
463
486
545
533
536
528
521
532
543
562
543
533
467
478
479
495
496
486
467
467
472
479
533
540
537
529
525
531
544
558
545
533
471
474
478
487
498
494
470
471
469
476
536
547
542
528
528
528
533
560
547
539
466
475
478
494
500
484
460
458
470
481
542
541
537
535
531
524
540
562
544
534
467
467
487
494
498
486
464
466
468
478
540
545
544
526
529
526
542
559
545
534
463
474
485
496
502
489
464
461
467
473
539
545
540
537
519
529
544
561
543
532
465
473
479
496
499
491
461
467
463
479
537
544
539
530
524
537
543
560
546
536
467
472
479
494
499
496
467
462
475
479
538
537
534
529
526
522
547
566
544
532
462
482
481
501
498
486
463
466
462
470
541
542
534
537
529
531
542
567
542
530
466
472
478
498
498
488
462
465
466
482
543
540
539
531
532
530
540
565
540
533
468
470
486
489
501
491
454
462
470
473
540
547
537
531
526
527
543
563
539
542
466
477
473
500
500
485
465
461
468
490
544
550
539
528
523
532
538
567
542
537
456
473
483
496
499
485
459
465
467
481
541
544
537
527
516
527
545
557
545
537
464
475
484
486
492
486
467
464
470
478
542
550
543
521
528
523
543
561
544
535
462
478
487
500
499
481
463
468
463
483
542
544
543
527
524
519
547
567
547
529
462
478
481
496
494
484
467
463
461
488
539
544
533
535
535
520
542
559
545
531
454
481
486
494
500
486
469
456
468
487
547
542
536
525
524
525
546
560
536
533
460
479
482
496
498
483
466
461
466
487
544
541
540
528
524
530
545
559
540
534
458
476
482
497
495
488
464
456
474
485
539
547
536
527
526
532
545
560
548
533
463
477
484
491
498
487
466
463
470
485
532
547
533
531
522
530
549
559
542
538
461
473
480
493
505
486
462
459
467
492
540
540
548
531
526
529
545
561
543
534
453
472
481
497
498
489
468
464
460
486
544
545
542
526
521
527
550
563
544
528
463
483
481
494
506
483
468
462
463
485
540
541
540
529
522
531
544
564
548
529
457
472
484
499
495
491
462
461
464
480
542
547
540
521
526
529
541
562
545
540
457
470
481
495
503
488
468
469
467
483
540
540
531
534
526
527
546
570
547
540
444
475
477
495
508
486
469
467
463
483
533
537
545
527
522
525
550
568
549
533
463
478
479
494
505
478
465
466
467
485
540
546
538
530
528
533
542
565
541
529
454
479
482
496
496
486
464
465
469
483
540
543
532
536
525
525
552
559
545
536
451
478
472
497
501
481
466
461
463
487
538
541
534
534
525
529
553
566
550
527
457
476
481
495
491
488
456
462
463
487
543
543
540
528
527
532
545
559
542
536
460
471
477
496
491
483
463
465
469
483
548
542
539
530
524
527
551
563
543
531
456
479
481
500
492
489
469
462
466
484
541
538
535
536
524
525
547
563
548
533
451
481
480
494
498
487
462
463
469
485
545
549
541
527
522
533
546
556
547
534
453
476
488
496
498
481
457
462
470
487
553
545
539
524
524
529
545
564
549
530
459
474
477
496
492
481
460
461
459
494
547
546
545
530
530
519
545
561
544
532
457
473
486
499
499
478
459
462
468
482
545
541
536
536
530
528
550
562
545
537
454
475
474
495
497
488
460
468
472
490
543
539
539
530
522
531
554
564
545
524
451
472
484
499
499
486
462
458
478
484
543
547
538
522
525
535
551
567
545
534
449
482
478
493
496
486
472
463
461
490
543
540
541
528
526
527
550
561
544
532
456
468
482
497
493
478
462
467
471
488
544
541
544
534
518
535
551
563
541
532
453
476
483
501
498
483
465
459
473
487
542
539
527
535
521
529
547
565
545
534
452
472
482
497
503
484
462
467
473
493
546
534
536
531
523
528
540
562
547
531
453
476
490
499
496
485
459
463
463
492
546
541
537
531
521
534
547
558
543
537
451
479
476
494
496
489
469
465
470
487
551
545
536
529
523
526
551
566
545
528
452
474
482
503
504
483
461
460
470
489
547
551
537
527
518
529
547
558
546
527
451
476
485
498
496
479
460
461
474
488
549
543
533
535
524
529
548
563
550
528
448
477
481
500
495
487
468
475
462
487
544
543
537
529
524
532
552
566
536
535
449
478
478
492
503
488
462
465
471
490
550
543
544
530
532
520
546
562
540
529
454
477
478
494
499
486
463
466
467
496
549
546
537
533
522
529
551
568
539
532
458
470
478
499
497
483
463
463
471
486
547
542
542
534
524
526
547
563
543
528
450
475
484
494
497
488
460
465
464
489
543
547
539
529
528
532
548
558
551
529
453
477
482
496
489
483
459
464
470
496
547
543
545
529
529
535
550
549
546
530
449
479
478
502
499
487
459
463
469
492
547
540
540
530
519
529
551
564
545
530
451
469
485
493
499
487
461
464
466
491
548
540
541
534
526
528
549
565
543
537
445
472
482
495
501
483
457
462
468
494
549
548
537
530
535
542
555
566
540
532
444
472
476
493
499
473
462
466
464
492
548
549
539
534
522
532
560
564
543
534
445
473
477
500
504
480
458
461
465
495
555
540
543
531
524
535
558
571
541
530
444
464
480
502
496
473
460
467
467
487
556
547
543
522
525
535
557
570
548
530
443
468
480
488
494
482
457
457
457
500
554
544
550
528
528
541
555
560
548
536
439
470
474
497
492
479
458
463
463
491
554
550
541
531
529
542
557
574
546
