0
0
0
0
0
0
0
1022
1022
1022
1022
1022
1022
1023
1022
1022
1022
0
0
0
0
0
0
0
0
0
0
1022
1023
1022
1022
1022
1022
1022
1022
1022
1022
0
0
0
0
0
0
0
0
0
0
1023
1023
1022
1022
1022
1022
1023
1022
1022
1022
0
0
0
0
0
0
0
0
0
0
1023
1022
1022
1022
1022
1022
1022
1022
1023
1022
0
0
0
0
0
0
0
0
0
30
1022
1023
1022
1022
1022
1022
1022
1022
1022
1021
0
0
0
0
0
0
0
0
0
44
1022
1023
1023
1022
1022
1022
1023
1022
1023
1022
0
0
0
0
0
0
0
0
0
35
1022
1022
1022
1022
1023
1022
1023
1022
1022
1022
0
0
0
0
0
0
0
0
0
8
1022
1022
1022
1023
1022
1022
1022
1022
1022
1022
0
0
0
0
0
0
0
0
0
0
1022
1022
1022
1022
1022
1023
1022
1023
1022
1022
0
0
0
0
0
0
0
0
0
0
1022
1022
1022
1022
1022
1022
1022
1022
1022
1022
0
0
0
0
0
0
0
0
0
0
1022
1022
1022
1022
1023
1023
1022
1022
1022
1022
0
0
0
0
0
0
0
0
0
0
1022
1023
1022
1022
1022
1022
1022
1023
1022
1022
0
0
0
0
0
0
0
0
0
0
1022
1023
1022
1022
1023
1022
1022
1022
1022
1022
0
0
0
0
0
0
0
0
0
0
1023
1022
1022
1022
1022
1022
1022
1022
1023
1022
0
0
0
0
0
0
0
0
0
49
1022
1023
1022
1022
1023
1022
1022
1022
1022
1022
0
0
0
0
0
0
0
0
0
95
1022
1022
1023
1022
1022
1022
1023
1022
1022
1020
0
0
0
0
0
0
0
0
0
114
1022
1022
1022
1022
1022
1022
1022
1022
1022
960
0
0
0
0
0
0
0
0
0
124
1022
1023
1022
1023
1022
1022
1023
1022
1022
956
0
0
0
0
0
0
0
0
0
157
1022
1022
1022
1022
1022
1023
1022
1023
1022
911
0
0
0
0
0
0
0
0
0
165
1023
1022
1023
1022
1022
1022
1023
1023
1022
884
0
0
0
0
0
0
0
0
0
176
1023
1022
1022
1022
1022
1022
1023
1022
1023
897
0
0
0
0
0
0
0
0
0
183
1023
1022
1023
1022
1022
1022
1022
1022
1023
896
0
0
0
0
0
0
0
0
0
149
1022
1022
1022
1022
1023
1022
1023
1023
1022
980
0
0
0
0
0
0
0
0
0
128
1022
1022
1022
1022
1022
1023
1023
1023
1023
927
0
0
0
0
0
0
0
0
0
148
1022
1022
1022
1022
1022
1022
1023
1023
1022
917
0
0
0
0
0
0
0
0
0
154
1022
1023
1022
1022
1022
1023
1022
1022
1022
902
0
0
0
0
0
0
0
0
0
180
1023
1022
1022
1023
1023
1022
1022
1022
1022
889
0
0
0
0
0
0
0
0
0
177
1022
1022
1023
1022
1022
1023
1022
1023
1023
877
0
0
0
0
0
0
0
0
0
207
1022
1022
1022
1022
1022
1022
1023
1023
1022
866
0
0
0
0
0
0
0
0
0
230
1022
1023
1023
1022
1022
1022
1023
1023
1022
856
0
0
0
0
0
0
0
0
0
261
1022
1023
1022
1022
1022
1022
1023
1022
1022
807
0
0
0
0
0
0
0
0
0
286
1022
1023
1022
1022
1023
1022
1022
1023
1022
766
0
0
0
0
0
0
0
0
0
343
1022
1022
1023
1022
1023
1022
1023
1022
1022
726
0
0
0
0
0
0
0
0
0
369
1022
1023
1022
1022
1022
1022
1022
1022
1022
734
0
0
0
0
0
0
0
0
0
315
1023
1022
1022
1022
1023
1022
1023
1022
1022
757
0
0
0
0
0
0
0
0
0
342
1022
1022
1022
1022
1022
1022
1023
1022
1022
739
0
0
0
0
0
0
0
0
0
337
1022
1023
1022
1022
1022
1022
1022
1022
1022
750
0
0
0
0
0
0
0
0
0
398
1023
1022
1022
1022
1022
1022
1022
1022
1022
673
0
0
0
0
0
0
0
0
0
446
1022
1022
1022
1022
1022
1022
1022
1023
1022
601
0
0
0
0
0
0
0
0
0
490
1022
1022
1023
1022
1022
1022
1022
1022
1022
579
0
0
0
0
0
0
0
0
0
516
1022
1023
1022
1022
1022
1022
1022
1023
1022
563
0
0
0
0
0
0
0
0
0
524
1022
1022
1022
1022
1022
1022
1023
1022
1022
544
0
0
0
0
0
0
0
0
0
523
1022
1022
1022
1022
1022
1023
1022
1022
1022
544
0
0
0
0
0
0
0
0
0
548
1023
1022
1022
1023
1022
1023
1022
1023
1023
515
0
0
0
0
0
0
0
0
0
565
1022
1022
1022
1022
1022
1023
1023
1022
1022
510
0
0
0
0
0
0
0
0
0
816
1022
1023
1022
1022
1022
1023
1022
1022
1022
825
0
0
0
0
0
0
0
0
0
162
1022
1022
1022
1022
1022
1022
1023
1022
1022
497
0
0
0
0
0
0
0
0
0
0
1022
1023
1022
1022
1022
1022
1023
1023
1022
147
0
0
0
0
0
0
0
0
0
838
1023
1022
1022
1022
1022
1023
1022
1022
1022
1022
0
0
0
0
0
0
0
0
0
1022
1023
1022
1022
1022
1022
1022
1022
1023
1022
178
0
0
0
0
0
0
0
0
0
560
1022
1022
1022
1022
1022
1022
1022
1022
1022
0
0
0
0
0
0
0
0
0
0
633
1023
1023
1022
1022
1022
1022
1023
1022
1022
207
0
0
0
0
0
0
0
0
0
1022
1022
1022
1023
1023
1022
1022
1023
1022
1022
333
0
0
0
0
0
0
0
0
0
860
1023
1022
1023
1022
1022
1022
1022
1022
1023
161
0
0
0
0
0
0
0
0
0
1022
1023
1023
1022
1022
1023
1023
1023
1022
1022
76
0
0
0
0
0
0
0
0
0
833
1023
1022
1022
1022
1022
1023
1022
1023
1022
87
0
0
0
0
0
0
0
0
0
1018
1022
1022
1022
1022
1022
1023
1022
1023
1022
0
0
0
0
0
0
0
0
0
0
1001
1022
1023
1022
1022
1022
1022
1022
1022
1022
0
0
0
0
0
0
0
0
0
0
1022
1022
1022
1022
1022
1022
1022
1023
1022
1022
117
0
0
0
0
0
0
0
0
0
1022
1022
1023
1023
1023
1022
1023
1022
1022
1023
0
0
0
0
0
0
0
0
0
0
1022
1022
1022
1022
1022
1022
1022
1022
1022
1022
0
0
0
0
0
0
0
0
0
0
1022
1023
1023
1023
1022
1022
1022
1022
1022
1022
0
0
0
0
0
0
0
0
0
0
1022
1022
1022
1022
1022
1022
1022
1023
1022
1022
0
0
0
0
0
0
0
0
0
102
1022
1022
1022
1023
1022
1023
1022
1022
1022
1022
0
0
0
0
0
0
0
0
0
79
1022
1022
1022
1022
1022
1023
1022
1023
1023
1022
0
0
0
0
0
0
0
0
0
9
1022
1022
1023
1023
1022
1022
1022
1023
1022
1021
0
0
0
0
0
0
0
0
0
1
1023
1022
1022
1023
1023
1022
1022
1022
1022
1017
0
0
0
0
0
0
0
0
0
87
1023
1022
1023
1022
1022
1022
1022
1023
1022
1022
0
0
0
0
0
0
0
0
0
127
1023
1022
1023
1022
1022
1022
1022
1022
1022
1022
0
0
0
0
0
0
0
0
0
125
1023
1022
1023
1023
1022
1022
1022
1022
1022
1022
0
0
0
0
0
0
0
0
0
77
1022
1022
1022
1022
1022
1022
1022
1023
1022
1010
0
0
0
0
0
0
0
0
0
123
1022
1022
1023
1023
1022
1022
1022
1023
1022
946
0
0
0
0
0
0
0
0
0
110
1022
1022
1022
1022
1022
1022
1022
1023
1022
977
0
0
0
0
0
0
0
0
0
139
1022
1022
1023
1023
1022
1022
1023
1022
1023
956
0
0
0
0
0
0
0
0
0
190
1022
1023
1022
1022
1022
1022
1022
1022
1023
937
0
0
0
0
0
0
0
0
0
172
1022
1022
1022
1023
1022
1022
1022
1022
1022
879
0
0
0
0
0
0
0
0
0
175
1022
1022
1022
1022
1022
1022
1022
1022
1022
921
0
0
0
0
0
0
0
0
0
186
1022
1023
1022
1022
1022
1022
1022
1022
1023
885
0
0
0
0
0
0
0
0
0
171
1022
1022
1022
1023
1022
1022
1023
1023
1022
938
0
0
0
0
0
0
0
0
0
219
1022
1022
1022
1022
1022
1022
1023
1022
1022
915
0
0
0
0
0
0
0
0
0
115
1022
1022
1022
1022
1023
1022
1022
1022
1022
968
0
0
0
0
0
0
0
0
0
132
1022
1023
1022
1023
1022
1022
1022
1022
1022
1020
0
0
0
0
0
0
0
0
0
44
1022
1022
1022
1022
1022
1023
1022
1023
1022
1022
0
0
0
0
0
0
0
0
0
39
1022
1023
1022
1023
1022
1022
1023
1022
1022
1021
0
0
0
0
0
0
0
0
0
38
1022
1023
1022
1023
1022
1022
1022
1022
1023
1022
0
0
0
0
0
0
0
0
0
46
1022
1022
1022
1023
1022
1022
1022
1022
1023
1021
0
0
0
0
0
0
0
0
0
91
1022
1022
1022
1022
1022
1022
1022
1022
1022
1022
0
0
0
0
0
0
0
0
0
26
1022
1023
1022
1023
1022
1022
1022
1023
1023
1002
0
0
0
0
0
0
0
0
0
147
1022
1022
1022
1022
1022
1022
1022
1023
1022
1020
0
0
0
0
0
0
0
0
0
97
1022
1022
1022
1022
1022
1022
1022
1023
1022
968
0
0
0
0
0
0
0
0
0
147
1022
1022
1022
1022
1022
1022
1022
1022
1022
903
0
0
0
0
0
0
0
0
0
177
1022
1022
1023
1022
1022
1022
1022
1022
1022
885
0
0
0
0
0
0
0
0
0
173
1022
1023
1022
1022
1022
1023
1022
1023
1022
880
0
0
0
0
0
0
0
0
0
203
1022
1022
1022
1023
1023
1022
1022
1022
1023
884
0
0
0
0
0
0
0
0
0
245
1022
1022
1022
1022
1022
1022
1023
1023
1022
867
0
0
0
0
0
0
0
0
0
199
1022
1022
1022
1022
1022
1022
1022
1022
1023
862
0
0
0
0
0
0
0
0
0
241
1022
1022
1023
1022
1023
1022
1022
1023
1023
833
0
0
0
0
0
0
0
0
0
280
1022
1022
1023
1022
1022
1022
1022
1023
1022
750
0
0
0
0
0
0
0
0
0
301
1022
1022
1022
1022
1022
1023
1022
1023
1022
801
0
0
0
0
0
0
0
0
0
345
1022
1022
1022
1023
1022
1022
1022
1023
1022
765
0
0
0
0
0
0
0
0
0
306
1022
1022
1022
1022
1022
1022
1022
1023
1023
747
0
0
0
0
0
0
0
0
0
373
1022
1022
1022
1022
1022
1022
1022
1023
1023
689
0
0
0
0
0
0
0
0
0
403
1022
1022
1022
1022
1022
1022
1023
1023
1022
697
0
0
0
0
0
0
0
0
0
389
1022
1022
1022
1022
1022
1022
1022
1022
1022
650
0
0
0
0
0
0
0
0
0
476
1022
1022
1022
1022
1022
1023
1022
1022
1022
663
0
0
0
0
0
0
0
0
0
391
1023
1022
1022
1023
1023
1022
1022
1023
1023
630
0
0
0
0
0
0
0
0
0
466
1023
1022
1022
1023
1023
1022
1022
1022
1022
623
0
0
0
0
0
0
0
0
0
448
1022
1022
1022
1023
1022
1022
1022
1022
1022
601
0
0
0
0
0
0
0
0
0
503
1022
1022
1023
1022
1022
1022
1022
1022
1022
608
0
0
0
0
0
0
0
0
0
480
1022
1023
1022
1023
1022
1022
1022
1022
1023
605
0
0
0
0
0
0
0
0
0
497
1022
1022
1022
1022
1022
1022
1023
1023
1022
571
0
0
0
0
0
0
0
0
0
507
1022
1022
1022
1022
1022
1022
1022
1022
1022
546
0
0
0
0
0
0
0
0
0
505
1022
1022
1022
1023
1023
1022
1022
1022
1022
549
0
0
0
0
0
0
0
0
0
567
1022
1022
1023
1022
1022
1022
1022
1022
1022
493
0
0
0
0
0
0
0
0
0
589
1022
1022
1022
1022
1023
1022
1022
1022
1022
511
0
0
0
0
0
0
0
0
0
579
1022
1022
1022
1022
1022
1022
1022
1022
1022
500
0
0
0
0
0
0
0
0
0
587
1023
1022
1022
1023
1022
1022
1022
1023
1023
463
0
0
0
0
0
0
0
0
0
628
1022
1022
1022
1023
1022
1023
1022
1022
1023
423
0
0
0
0
0
0
0
0
0
654
1022
1022
1022
1023
1022
1022
1022
1022
1022
415
0
0
0
0
0
0
0
0
0
682
1022
1023
1022
1023
1022
1022
1022
1022
1022
399
0
0
0
0
0
0
0
0
0
685
1022
1022
1023
1023
1022
1022
1023
1022
1022
364
0
0
0
0
0
0
0
0
0
768
1022
1022
1022
1022
1022
1022
1022
1022
1022
310
0
0
0
0
0
0
0
0
0
752
1022
1022
1023
1022
1022
1022
1022
1022
1022
300
0
0
0
0
0
0
0
0
0
742
1022
1022
1022
1022
1023
1022
1022
1023
1023
357
0
0
0
0
0
0
0
0
0
804
1022
1022
1022
1022
1022
1022
1022
1022
1022
304
0
0
0
0
0
0
0
0
0
719
1022
1022
1022
1023
1022
1022
1022
1022
1022
293
0
0
0
0
0
0
0
0
0
839
1022
1022
1022
1023
1022
1023
1022
1023
1022
254
0
0
0
0
0
0
0
0
0
851
1023
1022
1023
1023
1022
1022
1023
1022
1022
202
0
0
0
0
0
0
0
0
0
884
1022
1022
1022
1022
1022
1022
1022
1022
1022
192
0
0
0
0
0
0
0
0
0
872
1022
1022
1022
1023
1022
1022
1022
1022
1022
189
0
0
0
0
0
0
0
0
0
919
1023
1022
1023
1022
1022
1022
1022
1023
1022
188
0
0
0
0
0
0
0
0
0
905
1022
1022
1022
1023
1022
1022
1022
1022
1022
150
0
0
0
0
0
0
0
0
0
934
1022
1023
1022
1022
1022
1022
1023
1022
1022
159
0
0
0
0
0
0
0
0
0
941
1022
1022
1022
1022
1022
1022
1022
1022
1022
149
0
0
0
0
0
0
0
0
0
958
1023
1022
1022
1022
1022
1022
1022
1023
1022
85
0
0
0
0
0
0
0
0
0
999
1022
1023
1022
1023
1022
1022
1022
1022
1022
116
0
0
0
0
0
0
0
0
0
984
1022
1022
1022
1023
1022
1022
1022
1022
1022
34
0
0
0
0
0
0
0
0
0
1022
1022
1022
1022
1023
1023
1022
1022
1022
1022
27
0
0
0
0
0
0
0
0
0
1022
1022
1022
1022
1023
1022
1022
1022
1022
1022
0
0
0
0
0
0
0
0
0
0
1022
1022
1023
1022
1023
1022
1022
1022
1022
1022
0
0
0
0
0
0
0
0
0
0
1023
1022
1023
1022
1023
1022
1022
1022
1022
1022
0
0
0
0
0
0
0
0
0
0
1022
1022
1022
1022
1023
1022
1022
1022
1022
1020
0
0
0
0
0
0
0
0
0
172
1022
1022
1022
1022
1022
1022
1022
1023
1022
1022
0
0
0
0
0
0
0
0
0
0
1022
1022
1022
1022
1023
1022
1022
1023
1022
1022
0
0
0
0
0
0
0
0
0
24
1022
1022
1022
1022
1022
1022
1022
1022
1022
1022
0
0
0
0
0
0
0
0
0
0
1022
1022
1022
1022
1023
1022
1022
1022
1022
905
0
0
0
0
0
0
0
0
0
0
1022
1022
1022
1022
1023
1023
1022
1022
1022
1022
248
0
0
0
0
0
0
0
0
0
1015
1022
1022
1022
1023
1022
1022
1022
1022
1022
49
0
0
0
0
0
0
0
0
0
901
1022
1022
1022
1022
1022
1022
1023
1022
1022
0
0
0
0
0
0
0
0
0
0
1022
1022
1022
1022
1023
1022
1022
1022
1022
1022
215
0
0
0
0
0
0
0
0
0
930
1022
1022
1022
1023
1022
1022
1023
1022
1022
15
0
0
0
0
0
0
0
0
0
887
1022
1022
1022
1022
1022
1022
1022
1022
1023
174
0
0
0
0
0
0
0
0
0
969
1023
1022
1022
1023
1022
1022
1023
1022
1023
28
0
0
0
0
0
0
0
0
0
996
1022
1022
1022
1023
1022
1022
1022
1023
1022
0
0
0
0
0
0
0
0
0
0
1021
1022
1022
1022
1022
1022
1023
1022
1022
1022
151
0
0
0
0
0
0
0
0
0
1015
1022
1022
1022
1023
1023
1022
1022
1022
1022
135
0
0
0
0
0
0
0
0
0
824
1022
1022
1022
1023
1022
1022
1022
1022
1022
238
0
0
0
0
0
0
0
0
0
797
1022
1022
1022
1023
1022
1022
1022
1022
1023
290
0
0
0
0
0
0
0
0
0
770
1022
1022
1022
1023
1023
1023
1022
1023
1022
431
0
0
0
0
0
0
0
0
0
721
1022
1022
1022
1023
1022
1022
1022
1022
1022
340
0
0
0
0
0
0
0
0
0
666
1022
1023
1022
1022
1022
1022
1023
1022
1023
404
0
0
0
0
0
0
0
0
0
695
1022
1023
1022
1023
1022
1022
1022
1022
1022
439
0
0
0
0
0
0
0
0
0
687
1022
1022
1022
1023
1022
1022
1023
1022
1023
414
0
0
0
0
0
0
0
0
0
701
1022
1022
1022
1023
1022
1022
1022
1022
1023
322
0
0
0
0
0
0
0
0
0
779
1022
1022
1023
1022
1022
1022
1022
1022
1023
361
0
0
0
0
0
0
0
0
0
740
1022
1022
1022
1023
1022
1022
1022
1023
1023
267
0
0
0
0
0
0
0
0
0
792
1022
1022
1022
1022
1022
1023
1022
1022
1022
295
0
0
0
0
0
0
0
0
0
843
1022
1022
1022
1023
1022
1022
1023
1022
1023
261
0
0
0
0
0
0
0
0
0
845
1022
1022
1022
1023
1023
1022
1023
1022
1023
252
0
0
0
0
0
0
0
0
0
830
1022
1022
1022
1022
1023
1023
1022
1022
1023
248
0
0
0
0
0
0
0
0
0
869
1022
1022
1022
1022
1023
1022
1023
1022
1023
214
0
0
0
0
0
0
0
0
0
915
1022
1022
1022
1023
1022
1022
1023
1023
1023
135
0
0
0
0
0
0
0
0
0
958
1022
1022
1022
1023
1022
1022
1022
1023
1023
128
0
0
0
0
0
0
0
0
0
989
1022
1022
1022
1023
1022
1022
1022
1022
1023
108
0
0
0
0
0
0
0
0
0
1020
1022
1022
1022
1023
1022
1022
1022
1022
1023
50
0
0
0
0
0
0
0
0
0
1003
1022
1022
1022
1023
1022
1022
1023
1022
1023
8
0
0
0
0
0
0
0
0
0
1022
1022
1022
1022
1023
1022
1022
1022
1022
1022
1
0
0
0
0
0
0
0
0
0
1022
1022
1022
1023
1023
1022
1022
1022
1022
1022
0
0
0
0
0
0
0
0
0
0
1022
1022
1022
1022
1023
1022
1023
1023
1023
1022
0
0
0
0
0
0
0
0
0
0
1022
1022
1022
1022
1022
1022
1022
1022
1022
1023
0
0
0
0
0
0
0
0
0
0
1022
1022
1022
1022
1023
1022
1022
1023
1022
1023
0
0
0
0
0
0
0
0
0
0
1023
1022
1023
1022
1023
1022
1022
1022
1022
1023
0
0
0
0
0
0
0
0
0
0
1022
1023
1023
1022
1022
1022
1022
1023
1022
1023
0
0
0
0
0
0
0
0
0
0
1022
1022
1023
1022
1023
1022
1022
1023
1022
1022
0
0
0
0
0
0
0
0
0
0
1023
1022
1022
1023
1023
1022
1022
1022
1022
1023
0
0
0
0
0
0
0
0
0
0
1022
1022
1023
1022
1022
1022
1022
1022
1022
1022
0
0
0
0
0
0
0
0
0
0
1023
1022
1022
1022
1022
1022
1022
1023
1022
1022
0
0
0
0
0
0
0
0
0
0
1022
1022
1022
1022
1023
1022
1022
1022
1022
1023
0
0
0
0
0
0
0
0
0
0
1023
1022
1022
1022
1022
1022
1022
1022
1022
1023
0
0
0
0
0
0
0
0
0
0
1022
1022
1023
1022
1023
1022
1022
1022
1022
1023
0
0
0
0
0
0
0
0
0
0
1022
1022
1022
1022
1022
1023
1022
1023
1023
1022
0
0
0
0
0
0
0
0
0
0
1022
1022
1022
1022
1022
1022
1022
1022
1022
1023
0
0
0
0
0
0
0
0
0
0
1022
1023
1023
1022
1022
1022
1022
1022
1022
1023
0
0
0
0
0
0
0
0
0
0
1022
1022
1022
1022
1022
1022
1022
1023
1022
1022
0
0
0
0
0
0
0
0
0
0
1022
1022
1023
1022
1023
1023
1022
1022
1022
1023
0
0
0
0
0
0
0
0
0
0
1023
1022
1022
1022
1023
1022
1022
1022
1022
1022
0
0
0
0
0
0
0
0
0
0
1023
1022
1023
1022
1023
1022
1023
1023
1022
1022
0
0
0
0
0
0
0
0
0
0
1022
1023
1022
1022
1023
1022
1022
1022
1022
1023
0
0
0
0
0
0
0
0
0
0
1022
1022
1022
1022
1023
1023
1022
1023
1022
1022
0
0
0
0
0
0
0
0
0
0
1022
1023
1022
1022
1022
1022
1022
1022
1022
1022
0
0
0
0
0
0
0
0
0
0
1023
1022
1022
1022
1023
1022
1022
1023
1022
1022
0
0
0
0
0
0
0
0
0
0
1022
1022
1022
1022
1022
1023
1022
1022
1022
1022
0
0
0
0
0
0
0
0
0
0
1023
1023
1022
1022
1022
1022
1022
1023
1022
1022
0
0
0
0
0
0
0
0
0
0
1022
1022
1022
1022
1023
1023
1022
1022
1022
1023
0
0
0
0
0
0
0
0
0
0
1022
1022
1023
1022
1022
1022
1022
1023
1022
1023
0
0
0
0
0
0
0
0
0
0
1022
1022
1022
1022
1023
1022
1022
1022
1022
1022
0
0
0
0
0
0
0
0
0
0
1022
1022
1023
1022
1023
1022
1023
1023
1022
1022
0
0
0
0
0
0
0
0
0
0
1022
1022
1023
1022
1023
1022
1023
1022
1022
792
0
0
0
0
0
0
0
0
0
74
1022
1022
1022
1022
1023
1022
1022
1022
1022
1023
521
0
0
0
0
0
0
0
0
0
1022
1022
1023
1022
1022
1022
1022
1023
1022
1022
0
0
0
0
0
0
0
0
0
0
1022
1022
1022
1022
1023
1022
1022
1022
1022
1022
0
0
0
0
0
0
0
0
0
0
1023
1022
1023
1022
1023
1022
1023
1023
1022
817
0
0
0
0
0
0
0
0
0
0
1022
1022
1022
1022
1022
1022
1023
1023
1022
1023
0
0
0
0
0
0
0
0
0
123
1022
1022
1023
1022
1023
1022
1022
1022
1023
1022
0
0
0
0
0
0
0
0
0
0
1023
1022
1023
1022
1023
1022
1022
1023
1022
1023
0
0
0
0
0
0
0
0
0
0
1023
1022
1022
1022
1023
1022
1022
1023
1022
1022
0
0
0
0
0
0
0
0
0
0
1022
1022
1023
1022
1023
1022
1022
1023
1022
1022
0
0
0
0
0
0
0
0
0
0
1023
1022
1023
1022
1023
1022
1023
1022
1022
1016
0
0
0
0
0
0
0
0
0
57
1022
1022
1022
1022
1023
1022
1023
1023
1022
1022
0
0
0
0
0
0
0
0
0
139
1022
1022
1022
1022
1023
1022
1022
1022
1022
1021
0
0
0
0
0
0
0
0
0
152
1022
1022
1022
1022
1022
1022
1022
1023
1022
1021
0
0
0
0
0
0
0
0
0
167
1022
1022
1023
1022
1023
1022
1023
1023
1022
866
0
0
0
0
0
0
0
0
0
117
1023
1022
1023
1022
1022
1022
1023
1023
1022
873
0
0
0
0
0
0
0
0
0
222
1022
1022
1022
1023
1023
1022
1022
1022
1022
872
0
0
0
0
0
0
0
0
0
240
1023
1023
1023
1022
1023
1022
1022
1023
1022
922
0
0
0
0
0
0
0
0
0
218
1022
1022
1023
1022
1023
1022
1022
1022
1022
877
0
0
0
0
0
0
0
0
0
188
1023
1022
1022
1022
1022
1023
1022
1023
1022
834
0
0
0
0
0
0
0
0
0
183
1022
1022
1022
1022
1023
1022
1022
1023
1022
882
0
0
0
0
0
0
0
0
0
184
1023
1022
1022
1022
1022
1022
1022
1023
1022
881
0
0
0
0
0
0
0
0
0
226
1022
1022
1022
1022
1023
1022
1022
1022
1022
893
0
0
0
0
0
0
0
0
0
248
1022
1022
1023
1022
1023
1022
1022
1023
1022
911
0
0
0
0
0
0
0
0
0
215
1022
1022
1022
1022
1023
1022
1022
1023
1022
833
0
0
0
0
0
0
0
0
0
225
1022
1022
1023
1022
1022
1022
1023
1023
1022
792
0
0
0
0
0
0
0
0
0
261
1022
1022
1022
1022
1022
1022
1022
1022
1022
833
0
0
0
0
0
0
0
0
0
302
1022
1022
1022
1023
1023
1023
1023
1023
1022
759
0
0
0
0
0
0
0
0
0
284
1022
1022
1023
1022
1023
1022
1022
1023
1022
796
0
0
0
0
0
0
0
0
0
321
1022
1023
1023
1022
1022
1022
1023
1023
1022
782
0
0
0
0
0
0
0
0
0
326
1023
1023
1023
1022
1023
1022
1022
1022
1023
796
0
0
0
0
0
0
0
0
0
265
1023
1023
1022
1022
1023
1022
1022
1022
1022
780
0
0
0
0
0
0
0
0
0
357
1022
1022
1022
1022
1023
1022
1022
1022
1022
810
0
0
0
0
0
0
0
0
0
244
1022
1023
1023
1022
1022
1022
1022
1022
1022
792
0
0
0
0
0
0
0
0
0
307
1022
1022
1023
1022
1023
1022
1022
1023
1022
787
0
0
0
0
0
0
0
0
0
329
1022
1022
1022
1022
1023
1022
1022
1022
1022
737
0
0
0
0
0
0
0
0
0
281
1022
1022
1022
1022
1023
1022
1022
1023
1022
783
0
0
0
0
0
0
0
0
0
395
1022
1022
1022
1022
1023
1022
1023
1022
1022
718
0
0
0
0
0
0
0
0
0
344
1022
1022
1023
1022
1023
1022
1022
1022
1022
740
0
0
0
0
0
0
0
0
0
396
1022
1022
1022
1023
1023
1023
1023
1023
1022
673
0
0
0
0
0
0
0
0
0
436
1022
1022
1023
1022
1023
1022
1022
1023
1022
646
0
0
0
0
0
0
0
0
0
482
1022
1022
1022
1022
1023
1023
1022
1022
1022
620
0
0
0
0
0
0
0
0
0
462
1022
1023
1023
1022
1023
1022
1022
1022
1022
554
0
0
0
0
0
0
0
0
0
508
1023
1022
1022
1022
1023
1022
1023
1022
1023
649
0
0
0
0
0
0
0
0
0
527
1022
1022
1022
1022
1023
1022
1022
1023
1022
545
0
0
0
0
0
0
0
0
0
492
1023
1022
1022
1022
1023
1022
1022
1022
1022
558
0
0
0
0
0
0
0
0
0
500
1022
1022
1023
1022
1023
1022
1023
1023
1022
593
0
0
0
0
0
0
0
0
0
562
1022
1022
1023
1022
1023
1022
1023
1023
1022
570
0
0
0
0
0
0
0
0
0
502
1022
1023
1023
1022
1022
1022
1023
1023
1022
569
0
0
0
0
0
0
0
0
0
561
1023
1023
1022
1022
1023
1022
1023
1022
1022
531
0
0
0
0
0
0
0
0
0
524
1022
1023
1022
1022
1023
1022
1022
1022
1022
488
0
0
0
0
0
0
0
0
0
576
1023
1023
1022
1022
1023
1022
1022
1022
1022
560
0
0
0
0
0
0
0
0
0
543
1022
1022
1023
1022
1023
1023
1022
1023
1022
567
0
0
0
0
0
0
0
0
0
499
1022
1023
1022
1022
1023
1022
1022
1023
1022
581
0
0
0
0
0
0
0
0
0
607
1022
1022
1022
1023
1023
1022
1022
1023
1022
515
0
0
0
0
0
0
0
0
0
575
1023
1022
1023
1022
1023
1022
1022
1023
1022
522
0
0
0
0
0
0
0
0
0
588
1022
1022
1023
1022
1023
1022
1022
1023
1022
472
0
0
0
0
0
0
0
0
0
590
1023
1022
1023
1022
1023
1022
1022
1023
1022
518
0
0
0
0
0
0
0
0
0
520
1022
1023
1023
1022
1023
1022
1022
1023
1022
524
0
0
0
0
0
0
0
0
0
615
1022
1022
1023
1023
1023
1022
1022
1022
1022
519
0
0
0
0
0
0
0
0
0
607
1022
1022
1022
1022
1023
1022
1022
1022
1023
493
0
0
0
0
0
0
0
0
0
627
1023
1022
1023
1022
1022
1022
1023
1023
1022
444
0
0
0
0
0
0
0
0
0
654
1022
1023
1023
1022
1023
1022
1022
1023
1023
377
0
0
0
0
0
0
0
0
0
622
1022
1023
1022
1022
1023
1022
1022
1022
1022
473
0
0
0
0
0
0
0
0
0
719
1022
1022
1023
1022
1023
1022
1022
1023
1022
409
0
0
0
0
0
0
0
0
0
700
1022
1022
1023
1022
1023
1022
1022
1023
1022
305
0
0
0
0
0
0
0
0
0
790
1023
1022
1023
1022
1023
1022
1022
1022
1022
320
0
0
0
0
0
0
0
0
0
787
1022
1022
1022
1022
1023
1022
1023
1022
1022
295
0
0
0
0
0
0
0
0
0
765
1022
1022
1022
1022
1023
1022
1022
1022
1022
251
0
0
0
0
0
0
0
0
0
843
1022
1022
1022
1022
1023
1022
1022
1023
1022
330
0
0
0
0
0
0
0
0
0
867
1022
1023
1023
1022
1023
1022
1022
1022
1022
210
0
0
0
0
0
0
0
0
0
880
1023
1022
1022
1022
1023
1022
1022
1023
1022
233
0
0
0
0
0
0
0
0
0
841
1022
1022
1022
1023
1023
1022
1022
1022
1022
223
0
0
0
0
0
0
0
0
0
887
1023
1022
1023
1022
1023
1022
1023
1023
1023
192
0
0
0
0
0
0
0
0
0
915
1022
1022
1022
1022
1023
1022
1023
1022
1022
127
0
0
0
0
0
0
0
0
0
1007
1022
1022
1022
1022
1022
1022
1022
1023
1022
166
0
0
0
0
0
0
0
0
0
936
1022
1022
1023
1022
1023
1022
1022
1022
1022
160
0
0
0
0
0
0
0
0
0
952
1022
1022
1022
1022
1023
1022
1023
1022
1022
144
0
0
0
0
0
0
0
0
0
1003
1022
1022
1023
1022
1023
1022
1022
1023
1022
121
0
0
0
0
0
0
0
0
0
1015
1023
1022
1023
1022
1023
1022
1023
1023
1022
90
0
0
0
0
0
0
0
0
0
1022
1022
1022
1022
1022
1023
1022
1022
1022
1022
24
0
0
0
0
0
0
0
0
0
1019
1022
1022
1022
1023
1022
1022
1023
1023
1022
33
0
0
0
0
0
0
0
0
0
1013
1022
1023
1023
1022
1023
1022
1022
1022
1022
78
0
0
0
0
0
0
0
0
0
1022
1022
1022
1022
1022
1022
1022
1023
1023
1022
19
0
0
0
0
0
0
0
0
0
1022
1022
1022
1022
1022
1023
1023
1022
1023
1022
91
0
0
0
0
0
0
0
0
0
1023
1022
1022
1022
1022
1023
1023
1023
1022
1022
0
0
0
0
0
0
0
0
0
0
1022
1022
1023
1022
1022
1023
1022
1022
1022
1022
0
0
0
0
0
0
0
0
0
0
1023
1022
1022
1023
1022
1023
1022
1022
1023
1022
0
0
0
0
0
0
0
0
0
0
1023
1022
1023
1022
1023
1023
1022
1022
1022
1022
0
0
0
0
0
0
0
0
0
0
1023
1023
1023
1022
1022
1023
1022
1022
1023
1022
0
0
0
0
0
0
0
0
0
0
1022
1022
1022
1022
1022
1023
1022
1023
1022
1022
0
0
0
0
0
0
0
0
0
0
1023
1022
1022
1022
1022
1023
1022
1022
1023
1022
0
0
0
0
0
0
0
0
0
0
1023
1023
1022
1023
1022
1023
1022
1022
1023
1022
0
0
0
0
0
0
0
0
0
0
1023
1023
1022
1023
1022
1023
1022
1023
1023
1022
0
0
0
0
0
0
0
0
0
0
1023
1022
1022
1022
1022
1023
1022
1022
1022
1022
0
0
0
0
0
0
0
0
0
0
1023
1022
1022
1022
1022
1023
1023
1022
1022
1022
0
0
0
0
0
0
0
0
0
0
1023
1022
1023
1023
1022
1022
1022
1023
1022
1022
0
0
0
0
0
0
0
0
0
0
1023
1022
1022
1023
1022
1023
1022
1023
1023
1022
0
0
0
0
0
0
0
0
0
0
1023
1022
1022
1023
1022
1023
1022
1022
1022
1022
0
0
0
0
0
0
0
0
0
0
1023
1023
1022
1023
1022
1023
1022
1022
1023
1022
0
0
0
0
0
0
0
0
0
0
1022
1022
1023
1023
1022
1022
1022
1022
1023
1022
0
0
0
0
0
0
0
0
0
0
1023
1022
1022
1022
1022
1023
1022
1022
1022
1022
0
0
0
0
0
0
0
0
0
0
1023
1022
1022
1022
1022
1022
1023
1022
1022
1022
0
0
0
0
0
0
0
0
0
0
1023
1023
1023
1023
1022
1023
1023
1023
1023
1022
0
0
0
0
0
0
0
0
0
0
1023
1022
1023
1023
1022
1023
1022
1022
1022
1022
0
0
0
0
0
0
0
0
0
0
1023
1023
1023
1023
1022
1023
1022
1022
1023
1022
0
0
0
0
0
0
0
0
0
0
1022
1022
1022
1022
1022
1023
1022
1022
1023
1022
0
0
0
0
0
0
0
0
0
0
1023
1023
1022
1022
1022
1023
1022
1022
1023
1022
0
0
0
0
0
0
0
0
0
0
1022
1022
1022
1022
1022
1023
1022
1022
1022
1022
0
0
0
0
0
0
0
0
0
0
1023
1022
1022
1022
1022
1023
1022
1023
1023
1022
0
0
0
0
0
0
0
0
0
0
1023
1022
1022
1022
1022
1023
1023
1022
1023
1022
0
0
0
0
0
0
0
0
0
0
1023
1022
1022
1023
1022
1023
1022
1022
1023
1022
0
0
0
0
0
0
0
0
0
0
1023
1022
1022
1023
1022
1023
1022
1023
1023
1022
0
0
0
0
0
0
0
0
0
0
1022
1022
1022
1022
1022
1022
1022
1023
1023
1022
0
0
0
0
0
0
0
0
0
0
1023
1023
1022
1022
1022
1023
1023
1022
1022
1022
0
0
0
0
0
0
0
0
0
0
1023
1023
1023
1023
1022
1022
1022
1022
1023
1022
0
0
0
0
0
0
0
0
0
112
1023
1022
1022
1022
1022
1023
1023
1022
1023
1022
0
0
0
0
0
0
0
0
0
22
1023
1022
1023
1023
1022
1023
1022
1023
1023
1022
0
0
0
0
0
0
0
0
0
298
1023
1023
1023
1022
1022
1023
1023
1022
1023
1021
0
0
0
0
0
0
0
0
0
216
1023
1022
1022
1023
1022
1023
1022
1022
1023
1022
0
0
0
0
0
0
0
0
0
145
1022
1022
1022
1023
1022
1023
1022
1022
1023
945
0
0
0
0
0
0
0
0
0
148
1022
1023
1022
1023
1022
1022
1023
1023
1023
995
0
0
0
0
0
0
0
0
0
107
1023
1022
1022
1022
1022
1022
1022
1022
1023
955
0
0
0
0
0
0
0
0
0
113
1023
1022
1023
1023
1022
1023
1022
1022
1023
1022
0
0
0
0
0
0
0
0
0
89
1023
1023
1022
1023
1022
1023
1022
1022
1023
1022
0
0
0
0
0
0
0
0
0
0
1023
1022
1022
1022
1022
1023
1022
1022
1023
1022
0
0
0
0
0
0
0
0
0
0
1023
1022
1022
1023
1022
1023
1022
1023
1022
1022
0
0
0
0
0
0
0
0
0
0
1023
1022
1022
1022
1022
1023
1022
1022
1023
1022
0
0
0
0
0
0
0
0
0
0
1023
1022
1022
1022
1022
1023
1022
1022
1022
1022
0
0
0
0
0
0
0
0
0
0
1023
1023
1023
1023
1022
1023
1022
1022
1023
1022
0
0
0
0
0
0
0
0
0
0
1023
1022
1022
1023
1022
1022
1023
1022
1023
1022
0
0
0
0
0
0
0
0
0
0
1023
1023
1022
1022
1022
1023
1022
1022
1022
1022
0
0
0
0
0
0
0
0
0
0
1023
1023
1022
1022
1022
1023
1022
1022
1023
1022
0
0
0
0
0
0
0
0
0
0
1023
1022
1022
1023
1022
1023
1022
1022
1023
1022
0
0
0
0
0
0
0
0
0
0
1022
1022
1023
1023
1022
1023
1022
1022
1023
1022
0
0
0
0
0
0
0
0
0
0
1023
1022
1023
1023
1022
1023
1022
1022
1023
1022
0
0
0
0
0
0
0
0
0
9
1022
1022
1022
1022
1022
1023
1022
1022
1023
1022
0
0
0
0
0
0
0
0
0
18
1023
1023
1023
1023
1022
1022
1022
1022
1022
1022
0
0
0
0
0
0
0
0
0
28
1023
1022
1022
1022
1022
1023
1022
1022
1022
1022
0
0
0
0
0
0
0
0
0
56
1023
1023
1022
1022
1022
1023
1022
1023
1023
1022
0
0
0
0
0
0
0
0
0
57
1023
1022
1022
1023
1022
1023
1022
1023
1023
1022
0
0
0
0
0
0
0
0
0
0
1023
1022
1023
1023
1022
1023
1023
1023
1022
1022
0
0
0
0
0
0
0
0
0
0
1023
1022
1022
1023
1022
1023
1022
1023
1023
1022
0
0
0
0
0
0
0
0
0
0
1023
1022
1022
1023
1022
1023
1022
1023
1022
1022
0
0
0
0
0
0
0
0
0
0
1023
1023
1022
1022
1022
1023
1022
1022
1022
1022
0
0
0
0
0
0
0
0
0
0
1023
1022
1022
1023
1022
1023
1022
1022
1023
1022
0
0
0
0
0
0
0
0
0
118
1023
1022
1022
1023
1022
1023
1022
1023
1023
1011
0
0
0
0
0
0
0
0
0
108
1023
1023
1023
1023
1022
1022
1023
1023
1023
924
0
0
0
0
0
0
0
0
0
158
1023
1022
1022
1022
1022
1023
1022
1022
1022
904
0
0
0
0
0
0
0
0
0
230
1023
1022
1022
1022
1022
1023
1022
1022
1023
874
0
0
0
0
0
0
0
0
0
252
1023
1022
1022
1023
1022
1022
1022
1023
1022
818
0
0
0
0
0
0
0
0
0
267
1023
1022
1023
1022
1022
1023
1023
1022
1022
805
0
0
0
0
0
0
0
0
0
286
1023
1022
1022
1023
1022
1023
1022
1023
1023
801
0
0
0
0
0
0
0
0
0
273
1023
1022
1022
1023
1022
1023
1022
1023
1023
798
0
0
0
0
0
0
0
0
0
273
1023
1022
1022
1022
1022
1023
1023
1022
1022
831
0
0
0
0
0
0
0
0
0
298
1023
1023
1022
1023
1022
1023
1022
1023
1023
822
0
0
0
0
0
0
0
0
0
304
1023
1022
1022
1022
1022
1023
1023
1023
1023
793
0
0
0
0
0
0
0
0
0
301
1023
1022
1022
1022
1022
1023
1022
1022
1023
823
0
0
0
0
0
0
0
0
0
248
1022
1022
1022
1023
1022
1023
1022
1022
1023
767
0
0
0
0
0
0
0
0
0
310
1023
1022
1022
1022
1022
1023
1022
1022
1022
769
0
0
0
0
0
0
0
0
0
341
1023
1023
1022
1023
1022
1023
1022
1022
1022
759
0
0
0
0
0
0
0
0
0
348
1023
1022
1023
1023
1022
1022
1022
1022
1022
751
0
0
0
0
0
0
0
0
0
378
1023
1022
1022
1022
1022
1023
1022
1023
1022
681
0
0
0
0
0
0
0
0
0
393
1023
1023
1022
1022
1022
1022
1022
1023
1023
671
0
0
0
0
0
0
0
0
0
409
1023
1022
1023
1023
1022
1023
1022
1022
1023
659
0
0
0
0
0
0
0
0
0
430
1023
1022
1022
1022
1022
1023
1022
1023
1022
644
0
0
0
0
0
0
0
0
0
435
1023
1022
1023
1022
1022
1023
1022
1022
1023
657
0
0
0
0
0
0
0
0
0
460
1023
1022
1022
1022
1022
1023
1022
1023
1022
636
0
0
0
0
0
0
0
0
0
453
1023
1022
1023
1022
1022
1023
1022
1022
1023
632
0
0
0
0
0
0
0
0
0
487
1022
1022
1022
1022
1022
1023
1022
1022
1022
631
0
0
0
0
0
0
0
0
0
497
1023
1022
1022
1023
1022
1023
1022
1022
1023
605
0
0
0
0
0
0
0
0
0
524
1022
1022
1022
1022
1022
1022
1023
1022
1022
574
0
0
0
0
0
0
0
0
0
524
1023
1022
1022
1022
1022
1022
1023
1023
1022
555
0
0
0
0
0
0
0
0
0
542
1022
1023
1022
1023
1022
1023
1022
1022
1023
560
0
0
0
0
0
0
0
0
0
575
1023
1022
1022
1023
1022
1023
1023
1023
1023
530
0
0
0
0
0
0
0
0
0
628
1023
1022
1022
1023
1022
1023
1022
1022
1023
445
0
0
0
0
0
0
0
0
0
652
1023
1022
1023
1023
1022
1023
1022
1022
1023
432
0
0
0
0
0
0
0
0
0
690
1023
1022
1022
1022
1022
1023
1022
1022
1023
459
0
0
0
0
0
0
0
0
0
931
1023
1022
1022
1022
1022
1023
1022
1023
1022
402
0
0
0
0
0
0
0
0
0
268
1023
1022
1022
1022
1022
1023
1022
1023
1023
196
0
0
0
0
0
0
0
0
0
822
1022
1022
1022
1023
1022
1023
1022
1023
1023
25
0
0
0
0
0
0
0
0
0
1022
1023
1023
1022
1022
1022
1022
1022
1022
1023
1022
0
0
0
0
0
0
0
0
0
869
1023
1022
1023
1023
1022
1023
1022
1022
681
0
0
0
0
0
0
0
0
0
0
472
1023
1022
1023
1023
1022
1023
1023
1023
1022
389
0
0
0
0
0
0
0
0
0
1022
1022
1022
1023
1023
1022
1023
1022
1022
1022
0
0
0
0
0
0
0
0
0
0
407
1023
1022
1023
1022
1022
1023
1022
1022
1022
253
0
0
0
0
0
0
0
0
0
1022
1023
1023
1022
1022
1022
1023
1023
1022
1023
644
0
0
0
0
0
0
0
0
0
837
1022
1022
1023
1022
1022
1023
1022
1022
1022
0
0
0
0
0
0
0
0
0
0
1021
1023
1022
1023
1023
1022
1023
1022
1023
1022
129
0
0
0
0
0
0
0
0
0
1004
1022
1022
1022
1023
1022
1023
1022
1022
1022
0
0
0
0
0
0
0
0
0
0
944
1023
1022
1022
1022
1022
1023
1022
1022
1022
28
0
0
0
0
0
0
0
0
0
1022
1023
1022
1023
1023
1022
1022
1022
1022
1023
1
0
0
0
0
0
0
0
0
0
1022
1022
1022
1022
1023
1022
1022
1022
1022
1022
71
0
0
0
0
0
0
0
0
0
1022
1023
1022
1022
1023
1022
1023
1022
1022
1023
0
0
0
0
0
0
0
0
0
0
1022
1023
1022
1023
1023
1022
1023
1022
1023
1023
0
0
0
0
0
0
0
0
0
0
1022
1023
1022
1022
1022
1022
1023
1022
1022
1023
0
0
0
0
0
0
0
0
0
0
1022
1022
1022
1022
1022
1022
1023
1023
1022
1023
0
0
0
0
0
0
0
0
0
0
1022
1023
1023
1022
1022
1022
1023
1022
1022
1023
0
0
0
0
0
0
0
0
0
0
1022
1022
1023
1022
1023
1022
1023
1022
1022
1023
0
0
0
0
0
0
0
0
0
0
1022
1023
1022
1022
1022
1022
1023
1022
1022
1023
0
0
0
0
0
0
0
0
0
0
1022
1023
1022
1022
1023
1022
1023
1022
1022
1022
0
0
0
0
0
0
0
0
0
0
1022
1023
1022
1022
1023
1022
1023
1022
1022
1022
0
0
0
0
0
0
0
0
0
0
1022
1022
1022
1022
1023
1022
1023
1022
1022
1023
0
0
0
0
0
0
0
0
0
0
1022
1023
1023
1022
1022
1022
1022
1022
1022
1022
0
0
0
0
0
0
0
0
0
0
1022
1022
1022
1023
1022
1022
1022
1022
1023
1022
0
0
0
0
0
0
0
0
0
0
1022
1023
1022
1023
1023
1022
1023
1023
1023
1023
0
0
0
0
0
0
0
0
0
0
1022
1023
1022
1022
1023
1022
1023
1022
1022
1023
0
0
0
0
0
0
0
0
0
0
1022
1023
1022
1022
1023
1022
1023
1022
1023
1023
0
0
0
0
0
0
0
0
0
0
1022
1022
1022
1022
1022
1022
1023
1022
1022
1022
0
0
0
0
0
0
0
0
0
0
1022
1023
1022
1022
1022
1022
1023
1023
1022
1023
0
0
0
0
0
0
0
0
0
0
1022
1022
1022
1023
1022
1022
1022
1022
1022
1022
0
0
0
0
0
0
0
0
0
0
1022
1022
1022
1022
1022
1022
1023
1022
1023
1023
0
0
0
0
0
0
0
0
0
0
1022
1023
1022
1023
1023
1022
1023
1022
1022
1022
0
0
0
0
0
0
0
0
0
0
1022
1023
1023
1023
1023
1022
1023
1022
1022
1022
0
0
0
0
0
0
0
0
0
0
1022
1023
1022
1022
1022
1022
1023
1022
1022
1022
0
0
0
0
0
0
0
0
0
0
1022
1023
1023
1023
1023
1022
1022
1022
1022
1022
0
0
0
0
0
0
0
0
0
0
1022
1022
1023
1022
1022
1022
1023
1022
1022
1022
0
0
0
0
0
0
0
0
0
0
1022
1023
1023
1022
1023
1022
1022
1022
1023
1022
0
0
0
0
0
0
0
0
0
0
1022
1023
1022
1022
1023
1022
1022
1022
1022
1022
0
0
0
0
0
0
0
0
0
0
1022
1023
1022
1022
1023
1022
1022
1022
1023
1022
0
0
0
0
0
0
0
0
0
0
1022
1023
1022
1022
1023
1022
1022
1022
1022
1022
0
0
0
0
0
0
0
0
0
79
1022
1023
1022
1022
1022
1022
1023
1022
1022
1022
0
0
0
0
0
0
0
0
0
72
1022
1023
1022
1022
1022
1022
1023
1022
1022
1022
0
0
0
0
0
0
0
0
0
0
1022
1023
1022
1022
1023
1022
1023
1022
1023
1022
0
0
0
0
0
0
0
0
0
101
1022
1023
1022
1023
1023
1022
1023
1022
1022
1021
0
0
0
0
0
0
0
0
0
94
1022
1022
1022
1022
1022
1022
1022
1022
1022
939
0
0
0
0
0
0
0
0
0
183
1022
1023
1022
1023
1022
1022
1023
1022
1022
951
0
0
0
0
0
0
0
0
0
271
1022
1023
1022
1022
1022
1022
1023
1022
1022
927
0
0
0
0
0
0
0
0
0
155
1022
1022
1022
1022
1023
1022
1023
1022
1022
909
0
0
0
0
0
0
0
0
0
239
1022
1023
1022
1022
1023
1022
1022
1022
1022
913
0
0
0
0
0
0
0
0
0
118
1022
1022
1022
1022
1022
1022
1023
1022
1023
896
0
0
0
0
0
0
0
0
0
184
1022
1022
1023
1022
1022
1022
1022
1022
1022
914
0
0
0
0
0
0
0
0
0
202
1022
1022
1022
1023
1022
1023
1022
1022
1022
888
0
0
0
0
0
0
0
0
0
205
1022
1023
1022
1022
1022
1022
1022
1022
1022
924
0
0
0
0
0
0
0
0
0
252
1022
1023
1023
1022
1022
1022
1022
1022
1022
883
0
0
0
0
0
0
0
0
0
231
1022
1023
1022
1022
1023
1022
1023
1022
1022
850
0
0
0
0
0
0
0
0
0
258
1022
1022
1022
1022
1023
1022
1022
1022
1022
750
0
0
0
0
0
0
0
0
0
376
1022
1023
1022
1023
1023
1022
1022
1023
1022
782
0
0
0
0
0
0
0
0
0
291
1022
1023
1022
1022
1022
1022
1022
1022
1022
790
0
0
0
0
0
0
0
0
0
389
1022
1022
1022
1023
1023
1022
1023
1022
1023
828
0
0
0
0
0
0
0
0
0
248
1022
1023
1022
1022
1022
1022
1022
1022
1022
771
0
0
0
0
0
0
0
0
0
374
1022
1022
1022
1023
1023
1022
1022
1022
1023
738
0
0
0
0
0
0
0
0
0
347
1022
1023
1022
1022
1022
1022
1023
1022
1022
697
0
0
0
0
0
0
0
0
0
324
1022
1023
1022
1022
1022
1022
1023
1022
1023
728
0
0
0
0
0
0
0
0
0
426
1022
1023
1022
1022
1022
1022
1023
1022
1023
715
0
0
0
0
0
0
0
0
0
372
1022
1022
1022
1022
1022
1022
1022
1023
1022
690
0
0
0
0
0
0
0
0
0
393
1022
1022
1022
1023
1022
1022
1023
1022
1022
752
0
0
0
0
0
0
0
0
0
471
1022
1022
1022
1022
1022
1022
1023
1023
1023
652
0
0
0
0
0
0
0
0
0
339
1022
1022
1022
1022
1022
1022
1023
1022
1022
700
0
0
0
0
0
0
0
0
0
479
1022
1022
1022
1023
1023
1022
1022
1023
1022
601
0
0
0
0
0
0
0
0
0
462
1022
1023
1022
1022
1022
1022
1023
1023
1022
626
0
0
0
0
0
0
0
0
0
477
1022
1022
1023
1022
1022
1022
1022
1022
1023
624
0
0
0
0
0
0
0
0
0
491
1022
1022
1023
1022
1022
1022
1023
1022
1022
609
0
0
0
0
0
0
0
0
0
494
1022
1022
1022
1022
1022
1022
1023
1022
1022
599
0
0
0
0
0
0
0
0
0
551
1022
1023
1022
1022
1022
1022
1022
1022
1022
568
0
0
0
0
0
0
0
0
0
531
1022
1022
1023
1022
1022
1022
1023
1023
1022
524
0
0
0
0
0
0
0
0
0
573
1022
1022
1022
1023
1022
1022
1023
1022
1022
508
0
0
0
0
0
0
0
0
0
551
1022
1023
1023
1022
1022
1022
1023
1022
1022
610
0
0
0
0
0
0
0
0
0
536
1022
1022
1022
1022
1023
1022
1023
1023
1022
624
0
0
0
0
0
0
0
0
0
495
1022
1022
1023
1022
1023
1022
1023
1022
1023
595
0
0
0
0
0
0
0
0
0
558
1022
1022
1023
1022
1022
1022
1022
1023
1022
541
0
0
0
0
0
0
0
0
0
570
1022
1022
1023
1023
1022
1022
1023
1023
1022
450
0
0
0
0
0
0
0
0
0
587
1022
1023
1022
1022
1022
1022
1022
1023
1022
504
0
0
0
0
0
0
0
0
0
631
1022
1022
1022
1023
1022
1022
1022
1023
1023
486
0
0
0
0
0
0
0
0
0
644
1022
1022
1022
1023
1023
1022
1023
1022
1023
507
0
0
0
0
0
0
0
0
0
684
1022
1022
1022
1023
1023
1022
1022
1023
1023
440
0
0
0
0
0
0
0
0
0
721
1022
1022
1023
1023
1022
1022
1023
1022
1022
321
0
0
0
0
0
0
0
0
0
739
1022
1022
1023
1022
1022
1022
1022
1023
1022
301
0
0
0
0
0
0
0
0
0
762
1022
1022
1022
1022
1022
1023
1023
1022
1022
309
0
0
0
0
0
0
0
0
0
806
1022
1023
1023
1022
1022
1022
1022
1022
1022
282
0
0
0
0
0
0
0
0
0
845
1022
1022
1022
1022
1023
1022
1022
1022
1022
266
0
0
0
0
0
0
0
0
0
860
1022
1023
1022
1023
1022
1022
1022
1023
1022
259
0
0
0
0
0
0
0
0
0
882
1022
1022
1022
1022
1022
1022
1023
1022
1022
254
0
0
0
0
0
0
0
0
0
864
1022
1022
1022
1023
1022
1022
1022
1022
1022
211
0
0
0
0
0
0
0
0
0
880
1022
1022
1022
1022
1022
1022
1023
1022
1022
231
0
0
0
0
0
0
0
0
0
896
1022
1022
1022
1022
1022
1022
1023
1022
1023
210
0
0
0
0
0
0
0
0
0
886
1022
1022
1022
1023
1023
1022
1022
1022
1023
224
0
0
0
0
0
0
0
0
0
935
1022
1022
1022
1022
1023
1022
1022
1022
1022
163
0
0
0
0
0
0
0
0
0
949
1022
1022
1022
1023
1022
1022
1022
1022
1022
166
0
0
0
0
0
0
0
0
0
1004
1022
1023
1022
1022
1023
1022
1022
1022
1022
80
0
0
0
0
0
0
0
0
0
953
1022
1022
1022
1022
1022
1022
1023
1023
1022
54
0
0
0
0
0
0
0
0
0
1022
1022
1022
1023
1022
1022
1022
1023
1023
1022
156
0
0
0
0
0
0
0
0
0
1003
1022
1022
1023
1022
1023
1022
1023
1023
1023
29
0
0
0
0
0
0
0
0
0
1022
1022
1022
1023
1023
1023
1022
1022
1022
1022
10
0
0
0
0
0
0
0
0
0
1022
1022
1022
1022
1022
1022
1022
1023
1022
1022
0
0
0
0
0
0
0
0
0
0
1022
1022
1023
1023
1022
1022
1022
1022
1022
1022
0
0
0
0
0
0
0
0
0
0
1022
1022
1022
1023
1023
1022
1022
1023
1022
1022
0
0
0
0
0
0
0
0
0
0
1022
1022
1022
1022
1023
1022
1022
1022
1023
1022
0
0
0
0
0
0
0
0
0
0
1022
1022
1022
1022
1022
1023
1022
1023
1022
1022
0
0
0
0
0
0
0
0
0
0
1023
1022
1023
1022
1022
1022
1022
1022
1022
1023
0
0
0
0
0
0
0
0
0
0
1022
1022
1022
1022
1022
1022
1022
1023
1022
1022
0
0
0
0
0
0
0
0
0
0
1022
1022
1022
1023
1023
1022
1022
1022
1022
1022
0
0
0
0
0
0
0
0
0
0
1022
1022
1022
1022
1022
1022
1022
1022
1023
1023
0
0
0
0
0
0
0
0
0
0
1022
1022
1022
1022
1022
1022
1022
1022
1022
1022
0
0
0
0
0
0
0
0
0
0
1022
1022
1022
1022
1022
1023
1022
1023
1023
1022
0
0
0
0
0
0
0
0
0
0
1022
1022
1022
1023
1022
1022
1022
1022
1022
1022
0
0
0
0
0
0
0
0
0
0
1022
1022
1022
1022
1022
1023
1022
1023
1023
1022
0
0
0
0
0
0
0
0
0
0
1023
1022
1022
1023
1022
1023
1022
1022
1022
1022
0
0
0
0
0
0
0
0
0
0
1022
1022
1022
1022
1022
1022
1022
1022
1023
1022
0
0
0
0
0
0
0
0
0
0
1022
1022
1022
1022
1022
1022
1023
1022
1022
1022
0
0
0
0
0
0
0
0
0
0
1022
1022
1022
1022
1023
1023
1022
1023
1022
1022
0
0
0
0
0
0
0
0
0
305
1023
1022
1022
1022
1022
1022
1022
1022
1022
1020
0
0
0
0
0
0
0
0
0
0
1022
1022
1023
1022
1022
1022
1022
1023
1022
874
0
0
0
0
0
0
0
0
0
99
1023
1022
1023
1022
1022
1023
1022
1023
1022
1022
0
0
0
0
0
0
0
0
0
141
1022
1022
1022
1022
1022
1022
1022
1023
1022
1022
0
0
0
0
0
0
0
0
0
0
1022
1022
1023
1022
1022
1022
1022
1023
1022
1022
0
0
0
0
0
0
0
0
0
1
1023
1022
1022
1022
1023
1022
1022
1023
1022
1022
0
0
0
0
0
0
0
0
0
0
1023
1022
1022
1023
1023
1022
1022
1022
1023
1022
0
0
0
0
0
0
0
0
0
0
1022
1022
1022
1023
1022
1022
1022
1022
1022
1022
0
0
0
0
0
0
0
0
0
0
1023
1022
1022
1022
1022
1023
1022
1022
1022
1022
0
0
0
0
0
0
0
0
0
0
1023
1022
1022
1023
1022
1023
1022
1022
1022
1022
0
0
0
0
0
0
0
0
0
0
1022
1022
1023
1022
1022
1023
1022
1022
1023
1023
0
0
0
0
0
0
0
0
0
0
1022
1022
1022
1022
1022
1022
1022
1023
1022
1022
0
0
0
0
0
0
0
0
0
0
1023
1022
1022
1023
1023
1022
1022
1022
1022
1022
0
0
0
0
0
0
0
0
0
0
1022
1022
1022
1022
1023
1023
1022
1022
1023
1022
0
0
0
0
0
0
0
0
0
0
1022
1022
1022
1023
1023
1022
1022
1023
1022
1022
0
0
0
0
0
0
0
0
0
0
1022
1023
1022
1023
1023
1023
1022
1022
1023
1022
0
0
0
0
0
0
0
0
0
0
1022
1022
1022
1022
1023
1022
1022
1022
1022
1022
0
0
0
0
0
0
0
0
0
0
1022
1022
1022
1022
1022
1023
1022
1022
1022
1022
0
0
0
0
0
0
0
0
0
0
1022
1022
1022
1023
1022
1022
1022
1022
1023
1023
0
0
0
0
0
0
0
0
0
0
1022
1022
1022
1022
1022
1022
1022
1022
1022
1022
0
0
0
0
0
0
0
0
0
0
1023
1022
1023
1022
1023
1022
1022
1023
1022
1023
0
0
0
0
0
0
0
0
0
0
1022
1022
1022
1023
1022
1023
1022
1023
1022
1022
0
0
0
0
0
0
0
0
0
0
1022
1022
1022
1022
1022
1023
1022
1022
1022
1022
0
0
0
0
0
0
0
0
0
0
1022
1022
1023
1022
1023
1023
1022
1023
1023
1023
0
0
0
0
0
0
0
0
0
0
1023
1022
1022
1023
1023
1022
1022
1023
1022
1022
0
0
0
0
0
0
0
0
0
0
1023
1022
1022
1022
1023
1023
1022
1023
1023
1022
0
0
0
0
0
0
0
0
0
0
1023
1022
1022
1023
1022
1022
1022
1022
1022
1022
0
0
0
0
0
0
0
0
0
0
1023
1022
1022
1022
1022
1023
1022
1023
1023
1022
0
0
0
0
0
0
0
0
0
0
1022
1022
1022
1023
1022
1022
1022
1022
1023
1022
0
0
0
0
0
0
0
0
0
0
1022
1022
1022
1023
1023
1022
1022
1023
1022
1022
0
0
0
0
0
0
0
0
0
0
1023
1022
1022
1022
1022
1022
1022
1022
1023
1022
0
0
0
0
0
0
0
0
0
0
1022
1022
1022
1022
1022
1023
1022
1022
1022
1022
0
0
0
0
0
0
0
0
0
0
1022
1022
1022
1022
1022
1022
1022
1022
1023
1022
0
0
0
0
0
0
0
0
0
0
1023
1022
1022
1022
1023
1023
1023
1023
1022
1022
0
0
0
0
0
0
0
0
0
0
1022
1022
1023
1022
1022
1022
1022
1022
1022
1022
0
0
0
0
0
0
0
0
0
96
1023
1022
1023
1022
1022
1023
1022
1023
1022
1021
0
0
0
0
0
0
0
0
0
0
1023
1022
1023
1022
1023
1023
1022
1022
1022
1022
0
0
0
0
0
0
0
0
0
117
1023
1022
1022
1022
1023
1023
1022
1023
1022
1021
0
0
0
0
0
0
0
0
0
0
1023
1022
1022
1022
1023
1022
1022
1023
1022
1019
0
0
0
0
0
0
0
0
0
61
1022
1022
1022
1022
1023
1023
1022
1022
1022
1022
0
0
0
0
0
0
0
0
0
21
1023
1022
1022
1022
1022
1022
1022
1022
1022
1022
0
0
0
0
0
0
0
0
0
70
1022
1022
1022
1022
1023
1022
1022
1022
1022
1022
0
0
0
0
0
0
0
0
0
58
1023
1022
1023
1022
1022
1022
1022
1022
1022
1022
0
0
0
0
0
0
0
0
0
114
1023
1022
1022
1022
1023
1023
1022
1023
1022
1014
0
0
0
0
0
0
0
0
0
91
1023
1022
1023
1023
1022
1022
1022
1022
1022
887
0
0
0
0
0
0
0
0
0
126
1023
1022
1022
1022
1022
1022
1022
1023
1022
1018
0
0
0
0
0
0
0
0
0
192
1023
1022
1023
1023
1022
1022
1022
1023
1022
992
0
0
0
0
0
0
0
0
0
129
1023
1022
1022
1022
1022
1022
1022
1023
1022
932
0
0
0
0
0
0
0
0
0
136
1023
1022
1022
1023
1023
1022
1022
1022
1022
960
0
0
0
0
0
0
0
0
0
141
1022
1022
1022
1022
1022
1023
1022
1022
1022
1021
0
0
0
0
0
0
0
0
0
135
1023
1022
1022
1022
1022
1022
1022
1022
1022
1014
0
0
0
0
0
0
0
0
0
85
1022
1022
1022
1022
1023
1022
1022
1022
1023
1012
0
0
0
0
0
0
0
0
0
65
1023
1022
1022
1022
1023
1022
1022
1022
1022
1022
0
0
0
0
0
0
0
0
0
0
1023
1022
1022
1022
1022
1022
1022
1023
1022
1022
0
0
0
0
0
0
0
0
0
63
1023
1022
1022
1023
1023
1023
1022
1023
1023
1022
0
0
0
0
0
0
0
0
0
69
1022
1022
1022
1022
1022
1023
1022
1022
1023
1022
0
0
0
0
0
0
0
0
0
86
1022
1022
1023
1023
1023
1022
1022
1022
1022
1020
0
0
0
0
0
0
0
0
0
106
1023
1022
1022
1022
1022
1022
1022
1022
1023
961
0
0
0
0
0
0
0
0
0
131
1023
1022
1023
1022
1022
1022
1022
1022
1022
901
0
0
0
0
0
0
0
0
0
169
1023
1022
1022
1022
1023
1022
1022
1022
1022
899
0
0
0
0
0
0
0
0
0
207
1023
1022
1022
1023
1022
1023
1022
1022
1023
875
0
0
0
0
0
0
0
0
0
233
1023
1022
1022
1022
1022
1023
1022
1023
1022
881
0
0
0
0
0
0
0
0
0
270
1023
1022
1022
1022
1022
1023
1022
1022
1022
855
0
0
0
0
0
0
0
0
0
225
1022
1022
1022
1022
1022
1023
1022
1023
1022
779
0
0
0
0
0
0
0
0
0
251
1022
1022
1022
1022
1022
1022
1022
1022
1022
814
0
0
0
0
0
0
0
0
0
303
1023
1022
1022
1022
1023
1023
1022
1023
1022
813
0
0
0
0
0
0
0
0
0
261
1022
1022
1023
1022
1022
1022
1022
1022
1022
750
0
0
0
0
0
0
0
0
0
337
1023
1022
1023
1022
1022
1023
1022
1023
1022
787
0
0
0
0
0
0
0
0
0
348
1023
1022
1022
1023
1022
1023
1022
1022
1023
702
0
0
0
0
0
0
0
0
0
318
1023
1022
1023
1023
1022
1022
1022
1023
1022
704
0
0
0
0
0
0
0
0
0
425
1022
1022
1022
1022
1022
1023
1022
1022
1022
692
0
0
0
0
0
0
0
0
0
432
1022
1022
1022
1022
1023
1023
1022
1023
1022
658
0
0
0
0
0
0
0
0
0
449
1022
1022
1023
1022
1022
1023
1022
1022
1023
641
0
0
0
0
0
0
0
0
0
445
1022
1022
1022
1022
1022
1023
1022
1022
1023
619
0
0
0
0
0
0
0
0
0
475
1022
1022
1022
1022
1022
1022
1022
1023
1022
579
0
0
0
0
0
0
0
0
0
486
1022
1022
1022
1022
1022
1022
1022
1023
1022
560
0
0
0
0
0
0
0
0
0
533
1022
1022
1022
1022
1022
1022
1022
1023
1022
610
0
0
0
0
0
0
0
0
0
518
1023
1022
1022
1022
1022
1022
1022
1023
1022
573
0
0
0
0
0
0
0
0
0
581
1023
1022
1022
1023
1022
1023
1022
1022
1022
625
0
0
0
0
0
0
0
0
0
454
1023
1022
1023
1022
1022
1023
1022
1022
1022
489
0
0
0
0
0
0
0
0
0
120
1022
1022
1023
1022
1022
1023
1022
1022
1022
265
0
0
0
0
0
0
0
0
0
704
1023
1022
1022
1022
1022
1023
1022
1022
1023
1022
0
0
0
0
0
0
0
0
0
1022
1023
1022
1023
1022
1022
1022
1022
1022
1022
596
0
0
0
0
0
0
0
0
0
210
1022
1022
1022
1022
1022
1023
1023
1022
1022
201
0
0
0
0
0
0
0
0
0
620
1023
1022
1022
1022
1023
1022
1022
1022
1022
449
0
0
0
0
0
0
0
0
0
713
1023
1022
1022
1023
1022
1023
1022
1023
1022
423
0
0
0
0
0
0
0
0
0
630
1023
1022
1022
1023
1023
1022
1022
1022
1022
671
0
0
0
0
0
0
0
0
0
817
1023
1022
1022
1023
1023
1023
1022
1022
1022
545
0
0
0
0
0
0
0
0
0
685
1023
1022
1022
1022
1022
1022
1022
1022
1022
378
0
0
0
0
0
0
0
0
0
510
1022
1022
1022
1023
1023
1023
1022
1023
1023
201
0
0
0
0
0
0
0
0
0
730
1022
1022
1022
1022
1022
1023
1022
1022
1022
287
0
0
0
0
0
0
0
0
0
770
1023
1022
1022
1022
1022
1023
1022
1023
1023
297
0
0
0
0
0
0
0
0
0
902
1023
1022
1022
1023
1022
1023
1022
1022
1023
447
0
0
0
0
0
0
0
0
0
903
1023
1022
1022
1022
1022
1023
1022
1023
1022
289
0
0
0
0
0
0
0
0
0
850
1022
1022
1022
1022
1022
1023
1022
1023
1022
129
0
0
0
0
0
0
0
0
0
896
1022
1022
1022
1022
1023
1023
1022
1022
1022
33
0
0
0
0
0
0
0
0
0
1016
1022
1022
1022
1022
1022
1022
1022
1022
1022
40
0
0
0
0
0
0
0
0
0
1022
1022
1022
1022
1022
1022
1023
1022
1023
1022
48
0
0
0
0
0
0
0
0
0
1022
1023
1022
1022
1022
1022
1022
1022
1022
1022
5
0
0
0
0
0
0
0
0
0
1022
1022
1022
1022
1022
1023
1022
1022
1023
1022
0
0
0
0
0
0
0
0
0
0
1022
1022
1022
1022
1023
1022
1023
1022
1022
1022
0
0
0
0
0
0
0
0
0
0
1023
1023
1022
1022
1022
1022
1022
1022
1022
1022
0
0
0
0
0
0
0
0
0
0
1022
1023
1022
1022
1023
1023
1023
1022
1023
1022
0
0
0
0
0
0
0
0
0
0
1022
1022
1022
1022
1022
1023
1022
1022
1022
1022
0
0
0
0
0
0
0
0
0
0
1022
1022
1022
1023
1022
1023
1023
1022
1022
1022
0
0
0
0
0
0
0
0
0
0
1023
1022
1022
1022
1022
1022
1022
1022
1022
1022
0
0
0
0
0
0
0
0
0
0
1022
1022
1022
1022
1022
1022
1023
1022
1023
1022
0
0
0
0
0
0
0
0
0
0
1023
1023
1022
1022
1022
1023
1022
1022
1022
1022
0
0
0
0
0
0
0
0
0
0
1023
1023
1022
1022
1022
1022
1023
1022
1022
1022
0
0
0
0
0
0
0
0
0
0
1022
1023
1022
1022
1022
1022
1022
1022
1023
1022
0
0
0
0
0
0
0
0
0
0
1022
1022
1022
1023
1022
1023
1023
1022
1022
1022
0
0
0
0
0
0
0
0
0
0
1022
1022
1022
1023
1022
1022
1022
1022
1022
1022
0
0
0
0
0
0
0
0
0
0
1022
1022
1022
1023
1022
1022
1023
1022
1023
1022
0
0
0
0
0
0
0
0
0
0
1023
1023
1022
1023
1022
1022
1023
1022
1023
1022
0
0
0
0
0
0
0
0
0
0
1022
1023
1022
1023
1023
1023
1023
1022
1022
1022
0
0
0
0
0
0
0
0
0
0
1023
1023
1022
1022
1022
1023
1022
1022
1022
1022
0
0
0
0
0
0
0
0
0
0
1023
1023
1022
1022
1023
1022
1023
1022
1022
1022
0
0
0
0
0
0
0
0
0
0
1023
1023
1022
1022
1022
1022
1022
1022
1022
1022
0
0
0
0
0
0
0
0
0
45
1022
1022
1022
1022
1022
1022
1023
1022
1022
1022
0
0
0
0
0
0
0
0
0
0
1023
1022
1022
1022
1022
1023
1023
1022
1022
1022
0
0
0
0
0
0
0
0
0
0
1023
1023
1023
1023
1022
1023
1023
1022
1022
1022
0
0
0
0
0
0
0
0
0
0
1023
1022
1022
1022
1023
1022
1022
1022
1022
1022
0
0
0
0
0
0
0
0
0
0
1022
1023
1022
1022
1022
1023
1023
1022
1022
1022
0
0
0
0
0
0
0
0
0
6
1023
1022
1022
1022
1022
1022
1022
1022
1023
1022
0
0
0
0
0
0
0
0
0
11
1022
1022
1022
1023
1022
1022
1022
1022
1022
1022
0
0
0
0
0
0
0
0
0
0
1023
1023
1022
1022
1022
1023
1023
1022
1022
1022
0
0
0
0
0
0
0
0
0
0
1022
1022
1022
1023
1023
1022
1023
1022
1022
1022
0
0
0
0
0
0
0
0
0
41
1022
1023
1022
1022
1022
1023
1022
1022
1022
1022
0
0
0
0
0
0
0
0
0
74
1023
1022
1022
1022
1023
1023
1023
1022
1022
1021
0
0
0
0
0
0
0
0
0
53
1022
1022
1022
1022
1022
1022
1023
1022
1022
1022
0
0
0
0
0
0
0
0
0
79
1023
1022
1022
1022
1022
1022
1022
1022
1022
1022
0
0
0
0
0
0
0
0
0
45
1022
1023
1022
1022
1022
1023
1022
1022
1022
994
0
0
0
0
0
0
0
0
0
84
1022
1023
1022
1022
1022
1022
1023
1022
1022
1016
0
0
0
0
0
0
0
0
0
150
1023
1022
1022
1022
1022
1023
1023
1022
1022
1012
0
0
0
0
0
0
0
0
0
149
1023
1023
1022
1023
1022
1022
1023
1022
1022
936
0
0
0
0
0
0
0
0
0
89
1022
1023
1022
1022
1022
1022
1022
1022
1022
885
0
0
0
0
0
0
0
0
0
192
1022
1022
1022
1022
1023
1022
1023
1022
1022
920
0
0
0
0
0
0
0
0
0
113
1023
1022
1022
1022
1022
1023
1023
1022
1022
860
0
0
0
0
0
0
0
0
0
203
1022
1022
1022
1023
1022
1022
1023
1022
1022
944
0
0
0
0
0
0
0
0
0
229
1022
1022
1022
1022
1022
1022
1022
1022
1022
802
0
0
0
0
0
0
0
0
0
244
1023
1023
1022
1022
1022
1023
1022
1022
1023
814
0
0
0
0
0
0
0
0
0
324
1022
1022
1022
1022
1022
1022
1022
1022
1022
718
0
0
0
0
0
0
0
0
0
329
1022
1022
1022
1022
1022
1022
1023
1022
1022
758
0
0
0
0
0
0
0
0
0
384
1022
1023
1022
1022
1022
1022
1022
1022
1022
703
0
0
0
0
0
0
0
0
0
350
1023
1022
1022
1022
1023
1023
1023
1022
1022
690
0
0
0
0
0
0
0
0
0
358
1023
1022
1022
1022
1023
1022
1022
1022
1023
670
0
0
0
0
0
0
0
0
0
455
1022
1022
1022
1022
1023
1022
1023
1022
1022
671
0
0
0
0
0
0
0
0
0
384
1023
1022
1022
1022
1022
1022
1022
1022
1023
657
0
0
0
0
0
0
0
0
0
511
1022
1022
1022
1023
1023
1023
1023
1023
1022
625
0
0
0
0
0
0
0
0
0
415
1023
1023
1022
1022
1022
1022
1023
1022
1023
668
0
0
0
0
0
0
0
0
0
412
1023
1023
1022
1022
1022
1023
1022
1022
1022
534
0
0
0
0
0
0
0
0
0
548
1023
1022
1022
1022
1022
1023
1023
1022
1023
611
0
0
0
0
0
0
0
0
0
511
1023
1023
1022
1022
1023
1023
1022
1022
1022
510
0
0
0
0
0
0
0
0
0
546
1022
1022
1022
1022
1022
1022
1023
1022
1022
556
0
0
0
0
0
0
0
0
0
605
1023
1023
1022
1022
1023
1022
1023
1022
1022
521
0
0
0
0
0
0
0
0
0
518
1023
1023
1022
1022
1022
1022
1022
1022
1022
528
0
0
0
0
0
0
0
0
0
558
1023
1023
1022
1023
1023
1022
1023
1022
1022
476
0
0
0
0
0
0
0
0
0
644
1023
1023
1022
1022
1022
1022
1023
1023
1022
481
0
0
0
0
0
0
0
0
0
643
1022
1022
1022
1022
1022
1023
1023
1022
1022
474
0
0
0
0
0
0
0
0
0
652
1022
1022
1022
1022
1022
1022
1022
1022
1022
448
0
0
0
0
0
0
0
0
0
635
1022
1023
1022
1022
1023
1023
1023
1022
1022
395
0
0
0
0
0
0
0
0
0
631
1023
1023
1022
1023
1022
1022
1023
1022
1022
401
0
0
0
0
0
0
0
0
0
680
1022
1022
1022
1022
1022
1022
1022
1022
1022
444
0
0
0
0
0
0
0
0
0
686
1023
1022
1022
1022
1022
1022
1023
1022
1022
379
0
0
0
0
0
0
0
0
0
671
1022
1023
1022
1022
1023
1023
1022
1022
1022
433
0
0
0
0
0
0
0
0
0
672
1022
1022
1022
1022
1022
1022
1022
1022
1023
386
0
0
0
0
0
0
0
0
0
721
1023
1022
1022
1022
1022
1023
1022
1022
1022
331
0
0
0
0
0
0
0
0
0
701
1023
1022
1022
1022
1022
1023
1023
1022
1022
323
0
0
0
0
0
0
0
0
0
800
1023
1023
1022
1022
1022
1022
1023
1022
1022
348
0
0
0
0
0
0
0
0
0
774
1022
1023
1022
1022
1022
1023
1023
1022
1022
297
0
0
0
0
0
0
0
0
0
803
1022
1022
1022
1023
1022
1022
1023
1022
1022
274
0
0
0
0
0
0
0
0
0
763
1022
1022
1022
1022
1022
1022
1022
1022
1022
282
0
0
0
0
0
0
0
0
0
868
1022
1022
1022
1022
1022
1023
1023
1022
1023
191
0
0
0
0
0
0
0
0
0
808
1023
1023
1022
1022
1023
1022
1023
1022
1022
312
0
0
0
0
0
0
0
0
0
952
1022
1022
1022
1022
1022
1023
1023
1022
1022
212
0
0
0
0
0
0
0
0
0
810
1022
1022
1022
1022
1022
1023
1022
1022
1022
154
0
0
0
0
0
0
0
0
0
935
1023
1022
1022
1023
1023
1022
1022
1022
1022
140
0
0
0
0
0
0
0
0
0
903
1022
1023
1022
1023
1022
1022
1023
1022
1022
150
0
0
0
0
0
0
0
0
0
946
1023
1023
1022
1022
1022
1023
1023
1022
1022
126
0
0
0
0
0
0
0
0
0
975
1023
1023
1022
1022
1023
1023
1022
1022
1022
119
0
0
0
0
0
0
0
0
0
966
1022
1022
1022
1023
1023
1022
1023
1022
1022
31
0
0
0
0
0
0
0
0
0
1021
1023
1023
1022
1022
1022
1023
1023
1022
1022
38
0
0
0
0
0
0
0
0
0
1015
1023
1022
1022
1023
1022
1022
1022
1022
1022
9
0
0
0
0
0
0
0
0
0
1022
1022
1022
1022
1022
1022
1023
1022
1022
1022
0
0
0
0
0
0
0
0
0
0
1022
1023
1022
1022
1022
1022
1022
1023
1022
1022
2
0
0
0
0
0
0
0
0
0
1022
1023
1022
1022
1022
1022
1023
1022
1022
1022
0
0
0
0
0
0
0
0
0
0
1022
1023
1023
1022
1022
1022
1022
1023
1022
1022
0
0
0
0
0
0
0
0
0
0
1022
1022
1023
1022
1022
1022
1023
1023
1022
1022
0
0
0
0
0
0
0
0
0
0
1022
1022
1022
1022
1022
1022
1022
1022
1022
1022
0
0
0
0
0
0
0
0
0
0
1022
1022
1023
1022
1022
1022
1022
1023
1022
1022
0
0
0
0
0
0
0
0
0
0
1022
1023
1023
1022
1022
1022
1022
1022
1022
1022
0
0
0
0
0
0
0
0
0
0
1022
1023
1022
1022
1022
1022
1023
1022
1022
1022
0
0
0
0
0
0
0
0
0
0
1022
1022
1023
1022
1023
1022
1022
1023
1022
1022
0
0
0
0
0
0
0
0
0
0
1023
1022
1023
1022
1022
1023
1022
1023
1022
1022
0
0
0
0
0
0
0
0
0
0
1022
1022
1023
1022
1022
1022
1022
1022
1022
1022
0
0
0
0
0
0
0
0
0
0
1022
1022
1023
1022
1022
1022
1022
1022
1022
1022
0
0
0
0
0
0
0
0
0
0
1022
1022
1023
1023
1022
1022
1022
1023
1022
1022
0
0
0
0
0
0
0
0
0
0
1023
1022
1023
1022
1022
1023
1023
1023
1022
1022
0
0
0
0
0
0
0
0
0
0
1022
1022
1022
1022
1022
1023
1023
1023
1022
1022
0
0
0
0
0
0
0
0
0
0
1022
1022
1022
1022
1022
1022
1023
1023
1022
1022
0
0
0
0
0
0
0
0
0
36
1022
1022
1022
1022
1023
1023
1022
1023
1022
1022
0
0
0
0
0
0
0
0
0
0
1022
1022
1022
1022
1022
1022
1023
1023
1022
1022
0
0
0
0
0
0
0
0
0
0
1023
1022
1023
1022
1023
1022
1022
1023
1022
1022
0
0
0
0
0
0
0
0
0
80
1022
1022
1022
1022
1022
1022
1022
1023
1022
1022
0
0
0
0
0
0
0
0
0
52
1023
1023
1023
1022
1023
1022
1022
1022
1022
963
0
0
0
0
0
0
0
0
0
28
1022
1023
1023
1022
1022
1022
1022
1023
1022
1022
0
0
0
0
0
0
0
0
0
80
1022
1022
1023
1022
1022
1022
1022
1023
1022
1022
0
0
0
0
0
0
0
0
0
152
1022
1022
1023
1022
1022
1022
1022
1023
1022
1022
0
0
0
0
0
0
0
0
0
47
1022
1022
1022
1022
1023
1023
1023
1022
1022
960
0
0
0
0
0
0
0
0
0
147
1023
1023
1023
1022
1022
1022
1022
1022
1022
1020
0
0
0
0
0
0
0
0
0
17
1022
1023
1023
1022
1023
1022
1022
1023
1022
1021
0
0
0
0
0
0
0
0
0
130
1022
1023
1023
1022
1022
1022
1022
1022
1022
967
0
0
0
0
0
0
0
0
0
67
1022
1022
1023
1022
1023
1022
1022
1022
1022
1022
0
0
0
0
0
0
0
0
0
118
1022
1022
1023
1022
1022
1022
1022
1022
1022
1020
0
0
0
0
0
0
0
0
0
76
1022
1022
1023
1022
1022
1023
1022
1023
1022
1021
0
0
0
0
0
0
0
0
0
113
1022
1023
1023
1022
1022
1022
1023
1022
1022
932
0
0
0
0
0
0
0
0
0
99
1022
1022
1023
1022
1022
1022
1022
1023
1022
1022
0
0
0
0
0
0
0
0
0
95
1022
1022
1022
1022
1022
1023
1023
1023
1022
959
0
0
0
0
0
0
0
0
0
153
1022
1022
1022
1022
1023
1023
1022
1023
1022
1020
0
0
0
0
0
0
0
0
0
111
1022
1023
1023
1022
1022
1023
1023
1023
1022
989
0
0
0
0
0
0
0
0
0
122
1022
1022
1022
1022
1022
1023
1023
1023
1022
982
0
0
0
0
0
0
0
0
0
163
1022
1023
1023
1022
1022
1023
1023
1023
1022
977
0
0
0
0
0
0
0
0
0
90
1022
1022
1022
1022
1022
1023
1023
1022
1022
985
0
0
0
0
0
0
0
0
0
135
1022
1022
1022
1022
1022
1022
1022
1023
1022
965
0
0
0
0
0
0
0
0
0
124
1022
1022
1022
1022
1022
1022
1022
1023
1022
965
0
0
0
0
0
0
0
0
0
131
1023
1023
1022
1022
1022
1022
1022
1022
1022
987
0
0
0
0
0
0
0
0
0
142
1022
1022
1022
1022
1022
1022
1022
1022
1022
937
0
0
0
0
0
0
0
0
0
164
1022
1022
1023
1022
1022
1023
1022
1023
1022
923
0
0
0
0
0
0
0
0
0
257
1023
1023
1023
1022
1022
1022
1023
1022
1022
927
0
0
0
0
0
0
0
0
0
151
1023
1023
1023
1022
1022
1022
1022
1023
1022
826
0
0
0
0
0
0
0
0
0
255
1022
1022
1023
1022
1022
1023
1022
1023
1022
884
0
0
0
0
0
0
0
0
0
234
1023
1023
1023
1022
1022
1023
1023
1022
1022
844
0
0
0
0
0
0
0
0
0
230
1022
1023
1022
1022
1022
1022
1023
1023
1022
821
0
0
0
0
0
0
0
0
0
339
1022
1023
1023
1022
1022
1022
1023
1023
1022
819
0
0
0
0
0
0
0
0
0
287
1023
1023
1023
1022
1023
1022
1022
1022
1022
810
0
0
0
0
0
0
0
0
0
284
1022
1023
1022
1022
1022
1022
1022
1023
1022
760
0
0
0
0
0
0
0
0
0
296
1022
1022
1022
1022
1022
1022
1022
1022
1022
801
0
0
0
0
0
0
0
0
0
314
1022
1022
1022
1022
1022
1022
1023
1023
1022
759
0
0
0
0
0
0
0
0
0
326
1022
1022
1023
1022
1022
1023
1022
1023
1022
781
0
0
0
0
0
0
0
0
0
342
1023
1022
1022
1022
1022
1022
1022
1023
1022
836
0
0
0
0
0
0
0
0
0
336
1022
1023
1023
1022
1022
1022
1022
1022
1022
715
0
0
0
0
0
0
0
0
0
378
1023
1022
1023
1022
1022
1022
1022
1023
1022
716
0
0
0
0
0
0
0
0
0
399
1022
1022
1023
1022
1022
1023
1022
1023
1022
631
0
0
0
0
0
0
0
0
0
444
1023
1023
1023
1022
1023
1023
1022
1022
1022
638
0
0
0
0
0
0
0
0
0
451
1022
1022
1022
1022
1022
1023
1022
1022
1022
680
0
0
0
0
0
0
0
0
0
419
1023
1023
1023
1022
1022
1022
1023
1023
1022
737
0
0
0
0
0
0
0
0
0
494
1022
1023
1022
1022
1023
1022
1023
1022
1022
560
0
0
0
0
0
0
0
0
0
447
1022
1022
1022
1022
1022
1022
1022
1023
1022
533
0
0
0
0
0
0
0
0
0
477
1022
1022
1022
1022
1022
1022
1022
1022
1022
686
0
0
0
0
0
0
0
0
0
512
1023
1023
1022
1022
1022
1022
1022
1022
1022
712
0
0
0
0
0
0
0
0
0
508
1022
1023
1022
1022
1023
1022
1022
1022
1022
651
0
0
0
0
0
0
0
0
0
233
1022
1022
1023
1022
1022
1022
1022
1022
1022
583
0
0
0
0
0
0
0
0
0
449
1022
1023
1022
1022
1022
1023
1022
1023
1022
758
0
0
0
0
0
0
0
0
0
378
1022
1022
1022
1022
1022
1022
1022
1023
1022
612
0
0
0
0
0
0
0
0
0
235
1022
1022
1023
1022
1023
1022
1023
1023
1022
745
0
0
0
0
0
0
0
0
0
396
1023
1023
1022
1022
1022
1022
1023
1022
1023
939
0
0
0
0
0
0
0
0
0
198
1022
1022
1022
1022
1022
1022
1022
1022
1022
850
0
0
0
0
0
0
0
0
0
116
1023
1022
1022
1022
1022
1022
1023
1023
1022
808
0
0
0
0
0
0
0
0
0
140
1022
1022
1023
1022
1022
1022
1022
1022
1022
971
0
0
0
0
0
0
0
0
0
216
1023
1022
1023
1022
1022
1022
1022
1023
1022
1022
0
0
0
0
0
0
0
0
0
118
1022
1022
1022
1022
1022
1022
1022
1023
1022
944
0
0
0
0
0
0
0
0
0
30
1022
1022
1022
1022
1022
1022
1023
1022
1022
934
0
0
0
0
0
0
0
0
0
143
1022
1022
1022
1022
1022
1022
1023
1023
1022
1006
0
0
0
0
0
0
0
0
0
222
1023
1022
1022
1022
1022
1022
1022
1022
1023
871
0
0
0
0
0
0
0
0
0
187
1022
1022
1023
1022
1023
1022
1023
1022
1022
831
0
0
0
0
0
0
0
0
0
216
1022
1022
1022
1022
1022
1022
1022
1023
1022
832
0
0
0
0
0
0
0
0
0
279
1023
1022
1023
1022
1023
1022
1022
1023
1022
826
0
0
0
0
0
0
0
0
0
291
1023
1022
1023
1022
1023
1022
1022
1022
1022
757
0
0
0
0
0
0
0
0
0
267
1022
1022
1022
1022
1023
1023
1022
1022
1022
752
0
0
0
0
0
0
0
0
0
335
1022
1022
1022
1022
1022
1023
1023
1022
1022
763
0
0
0
0
0
0
0
0
0
356
1022
1022
1022
1022
1022
1022
1022
1022
1022
719
0
0
0
0
0
0
0
0
0
376
1022
1022
1022
1022
1022
1022
1022
1023
1022
662
0
0
0
0
0
0
0
0
0
444
1022
1023
1022
1022
1022
1023
1022
1022
1022
594
0
0
0
0
0
0
0
0
0
414
1023
1023
1022
1022
1022
1022
1023
1023
1022
614
0
0
0
0
0
0
0
0
0
482
1023
1023
1022
1022
1023
1022
1023
1022
1022
562
0
0
0
0
0
0
0
0
0
535
1023
1023
1022
1022
1022
1023
1022
1023
1022
526
0
0
0
0
0
0
0
0
0
559
1022
1023
1022
1022
1022
1023
1023
1023
1022
496
0
0
0
0
0
0
0
0
0
636
1022
1022
1023
1022
1022
1022
1022
1023
1022
481
0
0
0
0
0
0
0
0
0
662
1022
1022
1022
1022
1022
1022
1023
1022
1022
448
0
0
0
0
0
0
0
0
0
644
1022
1022
1022
1022
1022
1023
1023
1022
1022
372
0
0
0
0
0
0
0
0
0
663
1022
1022
1022
1023
1022
1023
1022
1022
1022
363
0
0
0
0
0
0
0
0
0
725
1023
1022
1022
1022
1022
1023
1022
1022
1022
351
0
0
0
0
0
0
0
0
0
723
1023
1022
1022
1022
1023
1023
1022
1022
1022
315
0
0
0
0
0
0
0
0
0
753
1022
1022
1023
1022
1022
1022
1022
1023
1022
333
0
0
0
0
0
0
0
0
0
746
1022
1023
1022
1023
1023
1023
1022
1022
1022
340
0
0
0
0
0
0
0
0
0
720
1023
1023
1022
1022
1022
1023
1023
1023
1022
310
0
0
0
0
0
0
0
0
0
752
1022
1022
1023
1022
1022
1022
1022
1022
1022
347
0
0
0
0
0
0
0
0
0
758
1022
1022
1023
1022
1022
1022
1023
1022
1023
241
0
0
0
0
0
0
0
0
0
770
1022
1022
1023
1022
1023
1023
1023
1022
1022
314
0
0
0
0
0
0
0
0
0
826
1023
1022
1022
1022
1023
1022
1022
1023
1022
290
0
0
0
0
0
0
0
0
0
758
1022
1022
1022
1022
1022
1022
1022
1022
1022
259
0
0
0
0
0
0
0
0
0
772
1023
1022
1023
1022
1022
1022
1023
1023
1022
287
0
0
0
0
0
0
0
0
0
883
1023
1023
1022
1022
1022
1022
1023
1023
1022
234
0
0
0
0
0
0
0
0
0
852
1022
1023
1022
1022
1022
1022
1023
1023
1022
199
0
0
0
0
0
0
0
0
0
819
1022
1023
1022
1023
1022
1023
1022
1023
1022
235
0
0
0
0
0
0
0
0
0
824
1022
1022
1022
1022
1022
1022
1022
1022
1023
304
0
0
0
0
0
0
0
0
0
848
1022
1022
1022
1022
1023
1022
1023
1023
1023
231
0
0
0
0
0
0
0
0
0
801
1022
1023
1023
1022
1022
1023
1023
1022
1022
208
0
0
0
0
0
0
0
0
0
860
1022
1022
1023
1022
1023
1022
1023
1022
1023
214
0
0
0
0
0
0
0
0
0
924
1022
1023
1022
1023
1022
1022
1022
1022
1022
201
0
0
0
0
0
0
0
0
0
823
1022
1022
1022
1022
1022
1023
1022
1022
1022
237
0
0
0
0
0
0
0
0
0
952
1023
1022
1023
1022
1022
1022
1022
1022
1022
338
0
0
0
0
0
0
0
0
0
1022
1022
1023
1022
1022
1022
1023
1022
1022
1022
0
0
0
0
0
0
0
0
0
0
804
1022
1022
1022
1022
1022
1022
1022
1022
1022
0
0
0
0
0
0
0
0
0
0
1022
1023
1022
1023
1022
1022
1023
1022
1022
1022
1022
0
0
0
0
379
0
0
0
0
1022
1023
1023
1023
1022
1022
1022
1022
1022
1023
22
0
0
0
0
0
0
0
0
0
255
1022
1023
1023
1022
1022
1022
1022
1023
1022
160
0
0
0
0
0
0
0
0
146
1022
1022
1022
1022
1022
1022
1022
1022
1022
1022
0
0
0
0
0
0
0
0
0
0
465
1022
1022
1022
1023
1023
1022
1022
1023
1022
0
0
0
0
0
0
0
0
0
280
1022
1022
1023
1022
1022
1022
1023
1022
1022
1023
71
0
0
0
0
0
0
0
0
0
1022
1023
1023
1022
1023
1022
1022
1022
1022
1022
0
0
0
0
0
0
0
0
0
0
1023
1022
1022
1022
1022
1022
1023
1023
1022
1022
0
0
0
0
0
0
0
0
0
0
1022
1022
1022
1023
1022
1023
1023
1022
1022
1021
0
0
0
0
0
0
0
0
0
0
972
1022
1022
1022
1022
1022
1022
1023
1022
914
0
0
0
0
0
0
0
0
0
0
1022
1022
1023
1022
1022
1022
1022
1022
1022
1022
0
0
0
0
0
0
0
0
0
0
1022
1022
1023
1022
1022
1022
1022
1023
1022
1022
0
0
0
0
0
0
0
0
0
116
1022
1022
1022
1022
1022
1023
1022
1022
1022
1022
0
0
0
0
0
0
0
0
0
7
1022
1023
1022
1023
1022
1022
1022
1022
1022
1020
0
0
0
0
0
0
0
0
0
222
1023
1022
1022
1023
1022
1022
1022
1022
1023
844
0
0
0
0
0
0
0
0
0
137
1023
1023
1022
1023
1022
1023
1023
1022
1022
893
0
0
0
0
0
0
0
0
0
176
1022
1022
1023
1022
1022
1022
1023
1022
1023
1016
0
0
0
0
0
0
0
0
0
255
1022
1022
1023
1023
1022
1022
1022
1022
1022
896
0
0
0
0
0
0
0
0
0
194
1022
1023
1022
1023
1022
1022
1023
1022
1022
825
0
0
0
0
0
0
0
0
0
257
1022
1022
1022
1022
1022
1022
1022
1023
1022
834
0
0
0
0
0
0
0
0
0
272
1022
1022
1022
1022
1023
1022
1022
1022
1022
749
0
0
0
0
0
0
0
0
0
239
1023
1022
1022
1022
1022
1022
1022
1022
1022
942
0
0
0
0
0
0
0
0
0
285
1022
1022
1022
1023
1022
1022
1022
1022
1022
935
0
0
0
0
0
0
0
0
0
209
1022
1022
1022
1022
1022
1022
1022
1022
1022
913
0
0
0
0
0
0
0
0
0
156
1022
1022
1022
1022
1022
1022
1023
1022
1022
809
0
0
0
0
0
0
0
0
0
226
1022
1023
1023
1023
1022
1022
1022
1022
1022
881
0
0
0
0
0
0
0
0
0
192
1022
1022
1022
1023
1022
1023
1022
1022
1022
859
0
0
0
0
0
0
0
0
0
277
1022
1023
1022
1022
1023
1022
1022
1022
1022
809
0
0
0
0
0
0
0
0
0
294
1023
1022
1022
1023
1022
1022
1023
1022
1022
829
0
0
0
0
0
0
0
0
0
265
1022
1023
1022
1023
1022
1022
1022
1023
1022
806
0
0
0
0
0
0
0
0
0
201
1022
1022
1022
1022
1022
1022
1023
1022
1022
854
0
0
0
0
0
0
0
0
0
260
1022
1022
1022
1022
1022
1022
1022
1022
1022
914
0
0
0
0
0
0
0
0
0
215
1022
1022
1022
1023
1022
1022
1022
1022
1022
759
0
0
0
0
0
0
0
0
0
300
1022
1022
1022
1022
1022
1022
1022
1022
1022
892
0
0
0
0
0
0
0
0
0
176
1022
1022
1022
1022
1022
1023
1022
1023
1022
847
0
0
0
0
0
0
0
0
0
203
1023
1022
1022
1022
1022
1022
1022
1022
1022
862
0
0
0
0
0
0
0
0
0
242
1022
1022
1023
1022
1023
1023
1023
1022
1023
900
0
0
0
0
0
0
0
0
0
236
1022
1022
1023
1022
1023
1022
1022
1022
1022
822
0
0
0
0
0
0
0
0
0
292
1023
1022
1022
1023
1022
1022
1023
1022
1023
831
0
0
0
0
0
0
0
0
0
334
1022
1022
1023
1022
1023
1022
1022
1023
1023
735
0
0
0
0
0
0
0
0
0
316
1022
1023
1022
1023
1022
1022
1022
1023
1022
742
0
0
0
0
0
0
0
0
0
409
1022
1023
1022
1022
1022
1022
1022
1022
1022
686
0
0
0
0
0
0
0
0
0
354
1022
1022
1022
1022
1022
1022
1023
1023
1022
687
0
0
0
0
0
0
0
0
0
495
1022
1023
1022
1022
1022
1022
1023
1022
1022
745
0
0
0
0
0
0
0
0
0
444
1022
1022
1022
1023
1023
1022
1023
1022
1022
593
0
0
0
0
0
0
0
0
0
589
1023
1022
1022
1022
1023
1022
1022
1023
1022
443
0
0
0
0
0
0
0
0
0
695
1022
1022
1022
1022
1023
1022
1023
1022
1022
505
0
0
0
0
0
0
0
0
0
711
1022
1023
1022
1023
1022
1022
1022
1022
1022
405
0
0
0
0
0
0
0
0
0
663
1023
1023
1022
1022
1023
1023
1022
1023
1022
505
0
0
0
0
0
0
0
0
0
642
1022
1022
1022
1022
1023
1022
1022
1022
1022
391
0
0
0
0
0
0
0
0
0
624
1022
1022
1023
1023
1023
1023
1022
1022
1022
414
0
0
0
0
0
0
0
0
0
710
1022
1023
1022
1022
1022
1022
1022
1023
1022
457
0
0
0
0
0
0
0
0
0
717
1022
1022
1022
1022
1022
1022
1022
1022
1022
348
0
0
0
0
0
0
0
0
0
671
1022
1022
1022
1022
1022
1022
1022
1023
1022
371
0
0
0
0
0
0
0
0
0
792
1022
1022
1022
1022
1023
1022
1023
1022
1022
364
0
0
0
0
0
0
0
0
0
740
1022
1022
1023
1022
1023
1022
1023
1022
1022
225
0
0
0
0
0
0
0
0
0
765
1022
1022
1022
1023
1022
1023
1022
1022
1022
348
0
0
0
0
0
0
0
0
63
860
1022
1023
1023
1023
1022
1022
1022
1023
1022
306
0
0
0
0
0
0
0
0
0
713
1023
1022
1022
1022
1022
1023
1022
1023
1022
313
0
0
0
0
0
0
0
0
0
788
1022
1022
1023
1022
1023
1022
1022
1022
1022
375
0
0
0
0
0
0
0
0
0
799
1022
1022
1023
1022
1023
1022
1022
1023
1022
263
0
0
0
0
0
0
0
0
0
748
1022
1022
1022
1022
1023
1022
1022
1022
1022
340
0
0
0
0
0
0
0
0
0
848
1022
1022
1022
1022
1023
1023
1023
1022
1022
249
0
0
0
0
0
0
0
0
0
774
1022
1022
1022
1023
1022
1022
1022
1022
1022
371
0
0
0
0
0
0
0
0
0
745
1022
1023
1022
1023
1022
1022
1022
1023
1022
407
0
0
0
0
0
0
0
0
0
716
1022
1022
1022
1022
1022
1022
1022
1023
1022
300
0
0
0
0
0
0
0
0
0
728
1022
1022
1023
1022
1023
1022
1022
1022
1022
397
0
0
0
0
0
0
0
0
0
741
1022
1022
1022
1022
1022
1022
1022
1022
1022
325
0
0
0
0
0
0
0
0
0
725
1022
1022
1022
1022
1023
1023
1023
1022
1022
350
0
0
0
0
0
0
0
0
0
814
1022
1022
1022
1022
1023
1022
1022
1022
1022
288
0
0
0
0
0
0
0
0
0
804
1023
1022
1023
1022
1023
1022
1023
1023
1022
284
0
0
0
0
0
0
0
0
0
773
1022
1022
1023
1022
1023
1022
1022
1022
1022
286
0
0
0
0
0
0
0
0
0
885
1023
1022
1022
1022
1023
1022
1023
1022
1022
283
0
0
0
0
0
0
0
0
0
828
1022
1022
1022
1023
1022
1022
1022
1022
1022
135
0
0
0
0
0
0
0
0
0
907
1022
1022
1022
1022
1022
1023
1022
1022
1022
114
0
0
0
0
0
0
0
0
0
915
1022
1022
1022
1022
1023
1022
1022
1023
1022
176
0
0
0
0
0
0
0
0
0
935
1022
1022
1022
1022
1023
1022
1022
1023
1022
188
0
0
0
0
0
0
0
0
0
951
1022
1023
1023
1022
1023
1022
1022
1023
1022
159
0
0
0
0
0
0
0
0
0
993
1022
1022
1022
1022
1023
1022
1022
1023
1022
143
0
0
0
0
0
0
0
0
0
990
1023
1023
1022
1023
1022
1022
1022
1022
1022
47
0
0
0
0
0
0
0
0
0
984
1022
1022
1022
1023
1022
1022
1023
1022
1022
74
0
0
0
0
0
0
0
0
0
1022
1022
1022
1022
1023
1023
1022
1022
1022
1022
62
0
0
0
0
0
0
0
0
0
1012
1022
1022
1022
1022
1022
1022
1023
1022
1022
19
0
0
0
0
0
0
0
0
0
1021
1022
1022
1022
1022
1023
1022
1023
1023
1022
44
0
0
0
0
0
0
0
0
0
1022
1022
1022
1022
1023
1023
1023
1022
1022
1022
0
0
0
0
0
0
0
0
0
0
1022
1023
1022
1022
1022
1022
1022
1022
1022
1022
0
0
0
0
0
0
0
0
0
0
1022
1022
1022
1022
1023
1023
1022
1022
1023
1022
0
0
0
0
0
0
0
0
0
35
1022
1022
1022
1022
1022
1022
1022
1022
1022
1022
0
0
0
0
0
0
0
0
0
0
1022
1022
1022
1022
1022
1023
1022
1022
1023
1022
0
0
0
0
0
0
0
0
0
73
1022
1022
1022
1023
1022
1022
1022
1022
1022
1022
0
0
0
0
0
0
0
0
0
0
1023
1022
1022
1022
1022
1022
1023
1023
1022
1022
0
0
0
0
0
0
0
0
0
55
1023
1022
1022
1023
1022
1022
1022
1023
1022
1022
0
0
0
0
0
0
0
0
0
0
1023
1022
1022
1022
1022
1023
1022
1022
1023
1022
0
0
0
0
0
0
0
0
0
6
1023
1022
1022
1022
1022
1022
1022
1022
1023
1022
0
0
0
0
0
0
0
0
0
22
1023
1022
1022
1022
1023
1023
1023
1023
1023
1022
0
0
0
0
0
0
0
0
0
0
1022
1022
1022
1022
1022
1022
1022
1022
1022
1022
0
0
0
0
0
0
0
0
0
38
1022
1022
1023
1022
1023
1023
1022
1022
1022
1022
0
0
0
0
0
0
0
0
0
31
1023
1022
1023
1022
1022
1023
1022
1022
1022
1022
0
0
0
0
0
0
0
0
0
46
1022
1022
1022
1023
1022
1023
1022
1023
1022
1022
0
0
0
0
0
0
0
0
0
36
1023
1022
1022
1023
1022
1023
1022
1022
1022
1022
0
0
0
0
0
0
0
0
0
71
1023
1022
1022
1022
1022
1023
1022
1023
1022
1022
0
0
0
0
0
0
0
0
0
48
1023
1022
1022
1023
1022
1023
1022
1022
1022
1022
0
0
0
0
0
0
0
0
0
79
1023
1022
1022
1022
1022
1022
1023
1023
1023
1017
0
0
0
0
0
0
0
0
0
100
1023
1022
1023
1022
1022
1023
1022
1023
1022
1022
0
0
0
0
0
0
0
0
0
65
1023
1022
1022
1022
1022
1022
1022
1022
1022
1000
0
0
0
0
0
0
0
0
0
59
1023
1022
1022
1023
1022
1023
1022
1022
1022
929
0
0
0
0
0
0
0
0
0
0
1023
1022
1022
1022
1022
1022
1022
1022
1022
1022
0
0
0
0
0
0
0
0
0
151
1023
1022
1023
1023
1022
1022
1022
1022
1022
902
0
0
0
0
0
0
0
0
0
0
1022
1022
1022
1022
1022
1022
1022
1022
1022
1022
0
0
0
0
0
0
0
0
0
0
1023
1022
1022
1022
1022
1023
1023
1023
1022
1022
0
0
0
0
0
0
0
0
0
0
1022
1022
1022
1022
1022
1022
1022
1022
1022
1022
0
0
0
0
0
0
0
0
0
0
1023
1022
1022
1022
1022
1023
1022
1022
1023
1022
0
0
0
0
0
0
0
0
0
0
1023
1023
1022
1022
1023
1022
1023
1023
1022
1022
0
0
0
0
0
0
0
0
0
0
1022
1022
1022
1023
1023
1022
1022
1023
1023
1022
0
0
0
0
0
0
0
0
0
0
1022
1022
1022
1022
1022
1023
1022
1023
1022
1022
0
0
0
0
0
0
0
0
0
0
1023
1022
1022
1022
1022
1023
1022
1023
1022
1022
0
0
0
0
0
0
0
0
0
0
1022
1022
1022
1022
1022
1023
1022
1022
1022
1022
102
0
0
0
0
0
0
0
0
0
897
1023
1022
1022
1022
1022
1022
1023
1023
1022
33
0
0
0
0
0
0
0
0
0
1007
1023
1022
1022
1023
1023
1022
1023
1022
1022
35
0
0
0
0
0
0
0
0
0
1021
1022
1022
1022
1022
1023
1022
1022
1023
1022
4
0
0
0
0
0
0
0
0
0
1005
1022
1022
1022
1022
1023
1022
1022
1022
1022
80
0
0
0
0
0
0
0
0
0
1007
1023
1023
1022
1022
1023
1022
1022
1022
1022
92
0
0
0
0
0
0
0
0
0
996
1022
1022
1022
1022
1023
1022
1023
1022
1022
65
0
0
0
0
0
0
0
0
0
1003
1022
1022
1022
1022
1023
1022
1022
1022
1022
33
0
0
0
0
0
0
0
0
0
1019
1022
1022
1022
1022
1023
1022
1022
1022
1023
75
0
0
0
0
0
0
0
0
0
1008
1023
1022
1022
1023
1023
1022
1022
1022
1022
43
0
0
0
0
0
0
0
0
0
1001
1022
1022
1022
1022
1023
1022
1023
1022
1022
75
0
0
0
0
0
0
0
0
0
1022
1022
1022
1022
1022
1023
1023
1022
1022
1022
10
0
0
0
0
0
0
0
0
0
1022
1022
1023
1022
1023
1023
1022
1022
1022
1022
0
0
0
0
0
0
0
0
0
0
1022
1022
1022
1023
1022
1022
1022
1022
1022
1022
0
0
0
0
0
0
0
0
0
0
1022
1022
1023
1022
1022
1022
1022
1022
1023
1022
0
0
0
0
0
0
0
0
0
0
1022
1022
1022
1023
1022
1022
1022
1022
1023
1022
0
0
0
0
0
0
0
0
0
0
1022
1022
1022
1022
1022
1023
1022
1023
1022
1022
0
0
0
0
0
0
0
0
0
0
1023
1023
1023
1022
1022
1023
1022
1022
1022
1022
0
0
0
0
0
0
0
0
0
0
1022
1022
1022
1022
1022
1022
1022
1023
1022
1022
0
0
0
0
0
0
0
0
0
0
1022
1022
1022
1023
1022
1023
1023
1022
1023
1022
0
0
0
0
0
0
0
0
0
0
1023
1023
1022
1022
1022
1023
1023
1022
1023
1022
0
0
0
0
0
0
0
0
0
0
1023
1022
1022
1023
1022
1023
1022
1022
1022
1022
0
0
0
0
0
0
0
0
0
0
1023
1022
1022
1022
1022
1023
1022
1023
1022
1022
0
0
0
0
0
0
0
0
0
0
1023
1023
1022
1023
1022
1022
1022
1022
1023
1023
0
0
0
0
0
0
0
0
0
0
1022
1022
1023
1022
1022
1022
1022
1022
1022
1022
0
0
0
0
0
0
0
0
0
0
1023
1023
1022
1022
1023
1023
1022
1022
1022
1022
0
0
0
0
0
0
0
0
0
0
1022
1022
1023
1022
1022
1023
1023
1022
1022
1022
0
0
0
0
0
0
0
0
0
0
1023
1022
1022
1023
1022
1023
1022
1023
1022
1022
0
0
0
0
0
0
0
0
0
0
1023
1022
1022
1022
1022
1023
1023
1023
1022
1022
0
0
0
0
0
0
0
0
0
0
1023
1022
1022
1022
1023
1023
1022
1022
1022
1022
0
0
0
0
0
0
0
0
0
0
1023
1023
1022
1022
1022
1023
1023
1023
1022
1022
0
0
0
0
0
0
0
0
0
2
1022
1023
1023
1023
1022
1023
1022
1023
1023
1022
0
0
0
0
0
0
0
0
0
0
1022
1022
1022
1022
1022
1023
1022
1023
1022
1022
0
0
0
0
0
0
0
0
0
0
1023
1023
1022
1023
1022
1023
1022
1022
1022
1022
0
0
0
0
0
0
0
0
0
0
1022
1022
1022
1022
1022
1023
1023
1023
1022
1022
0
0
0
0
0
0
0
0
0
0
1022
1023
1022
1022
1023
1022
1022
1022
1023
1022
0
0
0
0
0
0
0
0
0
0
1022
1022
1022
1023
1022
1023
1022
1023
1022
1022
0
0
0
0
0
0
0
0
0
0
1023
1022
1022
1022
1022
1022
1022
1022
1023
1022
0
0
0
0
0
0
0
0
0
0
1022
1023
1022
1022
1022
1023
1023
1022
1022
1013
0
0
0
0
0
0
0
0
0
206
1023
1022
1023
1022
1022
1022
1022
1022
1022
1022
0
0
0
0
0
0
0
0
0
0
1023
1022
1022
1022
1022
1022
1023
1023
1022
1022
0
0
0
0
0
0
0
0
0
122
1022
1023
1022
1023
1022
1023
1022
1022
1023
1022
0
0
0
0
0
0
0
0
0
48
1023
1023
1022
1022
1022
1022
1022
1023
1023
1022
0
0
0
0
0
0
0
0
0
91
1023
1022
1023
1022
1022
1023
1022
1022
1022
1021
0
0
0
0
0
0
0
0
0
59
1022
1022
1022
1022
1022
1023
1023
1022
1022
1022
0
0
0
0
0
0
0
0
0
91
1022
1023
1023
1023
1022
1023
1022
1023
1022
1011
0
0
0
0
0
0
0
0
0
109
1023
1022
1022
1022
1022
1023
1022
1022
1022
1022
0
0
0
0
0
0
0
0
0
90
1022
1023
1023
1023
1022
1023
1022
1022
1022
1018
0
0
0
0
0
0
0
0
0
112
1022
1022
1022
1023
1022
1022
1022
1022
1022
1010
0
0
0
0
0
0
0
0
0
101
1023
1023
1022
1022
1022
1022
1022
1022
1023
1008
0
0
0
0
0
0
0
0
0
129
1023
1022
1022
1022
1022
1022
1023
1022
1022
971
0
0
0
0
0
0
0
0
0
142
1022
1022
1022
1023
1022
1023
1022
1022
1022
898
0
0
0
0
0
0
0
0
0
198
1022
1022
1022
1022
1022
1023
1022
1022
1022
899
0
0
0
0
0
0
0
0
0
223
1022
1022
1022
1022
1023
1023
1022
1022
1022
903
0
0
0
0
0
0
0
0
0
165
1022
1022
1022
1023
1022
1022
1023
1022
1022
891
0
0
0
0
0
0
0
0
0
213
1022
1023
1022
1022
1022
1023
1022
1022
1023
891
0
0
0
0
0
0
0
0
0
230
1022
1022
1022
1023
1022
1023
1022
1023
1022
862
0
0
0
0
0
0
0
0
0
248
1022
1023
1022
1022
1022
1022
1023
1022
1022
856
0
0
0
0
0
0
0
0
0
254
1022
1022
1023
1022
1022
1023
1022
1023
1022
851
0
0
0
0
0
0
0
0
0
217
1023
1022
1022
1022
1022
1022
1022
1022
1023
839
0
0
0
0
0
0
0
0
0
259
1023
1022
1022
1022
1023
1023
1023
1022
1023
840
0
0
0
0
0
0
0
0
0
243
1022
1023
1022
1023
1022
1022
1022
1022
1022
808
0
0
0
0
0
0
0
0
0
270
1022
1022
1022
1022
1022
1022
1022
1023
1022
806
0
0
0
0
0
0
0
0
0
327
1022
1022
1022
1022
1022
1023
1022
1023
1023
775
0
0
0
0
0
0
0
0
0
307
1023
1023
1022
1022
1022
1022
1022
1023
1022
739
0
0
0
0
0
0
0
0
0
325
1023
1022
1022
1023
1022
1022
1022
1022
1022
766
0
0
0
0
0
0
0
0
0
339
1022
1022
1022
1022
1022
1023
1022
1022
1022
754
0
0
0
0
0
0
0
0
0
386
1023
1022
1022
1022
1022
1022
1023
1022
1022
728
0
0
0
0
0
0
0
0
0
371
1022
1022
1022
1022
1022
1023
1022
1023
1022
705
0
0
0
0
0
0
0
0
0
360
1022
1022
1022
1023
1022
1022
1022
1023
1022
715
0
0
0
0
0
0
0
0
0
380
1023
1022
1022
1022
1022
1023
1023
1023
1022
735
0
0
0
0
0
0
0
0
0
415
1023
1023
1022
1023
1022
1023
1022
1022
1023
715
0
0
0
0
0
0
0
0
0
404
1023
1022
1022
1022
1022
1023
1023
1023
1023
688
0
0
0
0
0
0
0
0
0
411
1023
1022
1023
1023
1022
1022
1022
1022
1022
671
0
0
0
0
0
0
0
0
0
419
1023
1022
1023
1022
1022
1023
1022
1023
1022
669
0
0
0
0
0
0
0
0
0
431
1023
1022
1023
1023
1022
1023
1022
1023
1023
644
0
0
0
0
0
0
0
0
0
490
1023
1022
1022
1022
1022
1023
1023
1023
1022
574
0
0
0
0
0
0
0
0
0
488
1023
1022
1022
1022
1022
1022
1022
1022
1022
591
0
0
0
0
0
0
0
0
0
528
1022
1022
1022
1022
1022
1022
1022
1022
1022
590
0
0
0
0
0
0
0
0
0
518
1023
1022
1022
1022
1022
1022
1023
1022
1023
558
0
0
0
0
0
0
0
0
0
532
1023
1022
1022
1022
1022
1023
1022
1022
1022
568
0
0
0
0
0
0
0
0
0
551
1023
1022
1022
1023
1022
1022
1022
1022
1023
563
0
0
0
0
0
0
0
0
0
523
1023
1022
1022
1022
1022
1023
1022
1022
1023
590
0
0
0
0
0
0
0
0
0
743
1022
1022
1023
1023
1022
1023
1022
1022
1022
820
0
0
0
0
0
0
0
0
0
578
1023
1022
1023
1022
1022
1023
1023
1023
1023
255
0
0
0
0
0
0
0
0
0
267
1023
1022
1022
1022
1022
1023
1022
1022
1022
580
0
0
0
0
0
0
0
0
0
539
1023
1022
1022
1022
1022
1023
1022
1023
1022
0
0
0
0
0
0
0
0
0
0
1022
1022
1023
1022
1023
1022
1023
1022
1022
1022
0
0
0
0
0
0
0
0
0
0
107
1023
1022
1022
1022
1022
1023
1022
1023
1023
507
0
0
0
0
0
0
0
0
0
1006
1023
1022
1022
1023
1022
1023
1022
1023
1023
162
0
0
0
0
0
0
0
0
0
386
1023
1022
1023
1023
1022
1023
1022
1022
1022
247
0
0
0
0
0
0
0
0
0
962
1022
1022
1022
1023
1022
1023
1022
1022
1023
478
0
0
0
0
0
0
0
0
0
999
1022
1022
1022
1022
1022
1023
1022
1023
1022
310
0
0
0
0
0
0
0
0
0
916
1023
1022
1022
1022
1022
1023
1022
1023
1022
100
0
0
0
0
0
0
0
0
0
768
1023
1022
1022
1022
1022
1023
1022
1023
1022
46
0
0
0
0
0
0
0
0
0
1017
1023
1022
1023
1023
1022
1023
1022
1023
1022
0
0
0
0
0
0
0
0
0
0
1020
1022
1023
1023
1023
1022
1022
1022
1022
1023
219
0
0
0
0
0
0
0
0
0
1022
1023
1022
1022
1023
1022
1023
1023
1023
1022
146
0
0
0
0
0
0
0
0
0
1020
1022
1022
1022
1022
1022
1023
1022
1022
1022
0
0
0
0
0
0
0
0
0
0
1022
1023
1023
1022
1023
1022
1023
1022
1023
1022
0
0
0
0
0
0
0
0
0
0
1022
1023
1022
1022
1023
1022
1023
1022
1022
1022
0
0
0
0
0
0
0
0
0
0
1022
1022
1022
1022
1022
1022
1023
1022
1022
1022
0
0
0
0
0
0
0
0
0
33
1022
1022
1022
1022
1023
1022
1023
1022
1022
1022
0
0
0
0
0
0
0
0
0
0
1022
1023
1022
1023
1022
1022
1022
1022
1023
1022
0
0
0
0
0
0
0
0
0
0
1022
1022
1022
1022
1023
1022
1023
1023
1022
1022
0
0
0
0
0
0
0
0
0
0
1022
1023
1022
1023
1023
1022
1022
1023
1022
1022
0
0
0
0
0
0
0
0
0
0
1022
1023
1022
1022
1022
1023
1023
1022
1022
1022
0
0
0
0
0
0
0
0
0
0
1022
1023
1022
1023
1023
1022
1023
1023
1022
1022
0
0
0
0
0
0
0
0
0
0
1022
1023
1023
1022
1022
1022
1023
1022
1022
1022
0
0
0
0
0
0
0
0
0
0
1022
1022
1022
1023
1023
1022
1023
1022
1022
1022
0
0
0
0
0
0
0
0
0
0
1022
1023
1022
1022
1022
1022
1023
1022
1022
1022
0
0
0
0
0
0
0
0
0
0
1022
1023
1022
1022
1023
1022
1023
1022
1022
1023
0
0
0
0
0
0
0
0
0
0
1022
1022
1022
1022
1023
1022
1023
1022
1022
1022
0
0
0
0
0
0
0
0
0
0
1023
1023
1023
1022
1022
1022
1023
1022
1022
1022
0
0
0
0
0
0
0
0
0
0
1022
1022
1022
1022
1023
1022
1023
1023
1022
1022
0
0
0
0
0
0
0
0
0
0
1022
1022
1022
1022
1022
1022
1023
1022
1022
1022
0
0
0
0
0
0
0
0
0
0
1023
1023
1022
1022
1023
1022
1023
1023
1022
1022
0
0
0
0
0
0
0
0
0
0
1022
1022
1022
1023
1023
1022
1023
1023
1022
1023
0
0
0
0
0
0
0
0
0
0
1022
1023
1022
1022
1023
1022
1022
1022
1023
1022
0
0
0
0
0
0
0
0
0
0
1022
1023
1022
1023
1023
1022
1023
1022
1022
1022
0
0
0
0
0
0
0
0
0
0
1022
1022
1023
1022
1022
1022
1023
1023
1022
1022
0
0
0
0
0
0
0
0
0
0
1022
1022
1022
1022
1023
1022
1023
1022
1022
1022
0
0
0
0
0
0
0
0
0
0
1022
1023
1022
1023
1023
1022
1023
1022
1022
1022
0
0
0
0
0
0
0
0
0
0
1022
1023
1022
1023
1023
1022
1023
1022
1022
1022
0
0
0
0
0
0
0
0
0
0
1022
1022
1022
1023
1022
1022
1022
1022
1023
1022
0
0
0
0
0
0
0
0
0
0
1022
1023
1022
1022
1022
1022
1022
1022
1022
1022
0
0
0
0
0
0
0
0
0
0
1022
1023
1022
1022
1023
1022
1023
1022
1022
1022
0
0
0
0
0
0
0
0
0
41
1022
1023
1022
1022
1023
1022
1022
1022
1023
1022
0
0
0
0
0
0
0
0
0
0
1023
1023
1022
1022
1022
1022
1023
1022
1023
1022
0
0
0
0
0
0
0
0
0
0
1022
1023
1022
1022
1023
1022
1022
1022
1023
1022
0
0
0
0
0
0
0
0
0
0
1022
1022
1022
1023
1022
1022
1023
1023
1022
1022
0
0
0
0
0
0
0
0
0
0
1022
1022
1022
1022
1022
1022
1023
1022
1022
1022
0
0
0
0
0
0
0
0
0
0
1022
1023
1022
1022
1022
1022
1023
1022
1023
1022
0
0
0
0
0
0
0
0
0
23
1022
1023
1022
1023
1022
1022
1023
1022
1022
1022
0
0
0
0
0
0
0
0
0
0
1022
1023
1022
1022
1022
1022
1023
1022
1022
1022
0
0
0
0
0
0
0
0
0
37
1022
1023
1022
1023
1023
1022
1023
1022
1022
1022
0
0
0
0
0
0
0
0
0
75
1022
1022
1022
1022
1022
1022
1023
1022
1022
1022
0
0
0
0
0
0
0
0
0
62
1022
1023
1022
1022
1023
1022
1023
1022
1022
1022
0
0
0
0
0
0
0
0
0
75
1022
1022
1022
1022
1022
1022
1023
1023
1022
1022
0
0
0
0
0
0
0
0
0
108
1022
1023
1022
1022
1023
1022
1023
1022
1023
1020
0
0
0
0
0
0
0
0
0
41
1022
1023
1022
1022
1023
1022
1023
1023
1023
1021
0
0
0
0
0
0
0
0
0
109
1022
1022
1022
1022
1023
1022
1023
1022
1022
1020
0
0
0
0
0
0
0
0
0
115
1022
1022
1022
1022
1022
1022
1023
1022
1022
1017
0
0
0
0
0
0
0
0
0
139
1022
1023
1022
1022
1022
1022
1023
1022
1022
998
0
0
0
0
0
0
0
0
0
146
1022
1023
1022
1023
1023
1022
1023
1022
1022
914
0
0
0
0
0
0
0
0
0
89
1022
1022
1022
1022
1023
1022
1023
1022
1022
980
0
0
0
0
0
0
0
0
0
127
1022
1022
1022
1022
1023
1022
1023
1022
1022
1021
0
0
0
0
0
0
0
0
0
96
1022
1023
1022
1023
1022
1022
1023
1022
1022
1022
0
0
0
0
0
0
0
0
0
116
1022
1023
1022
1022
1022
1022
1023
1022
1023
1020
0
0
0
0
0
0
0
0
0
92
1022
1023
1023
1022
1022
1022
1023
1022
1023
972
0
0
0
0
0
0
0
0
0
91
1023
1023
1022
1022
1022
1022
1023
1022
1023
954
0
0
0
0
0
0
0
0
0
150
1022
1023
1022
1023
1023
1022
1023
1022
1022
991
0
0
0
0
0
0
0
0
0
113
1022
1023
1022
1023
1023
1022
1023
1022
1023
1020
0
0
0
0
0
0
0
0
0
159
1022
1023
1022
1022
1022
1022
1023
1022
1022
940
0
0
0
0
0
0
0
0
0
166
1022
1023
1022
1022
1023
1022
1023
1023
1023
920
0
0
0
0
0
0
0
0
0
171
1022
1023
1022
1022
1023
1022
1023
1022
1022
898
0
0
0
0
0
0
0
0
0
199
1022
1023
1022
1022
1023
1022
1023
1022
1022
888
0
0
0
0
0
0
0
0
0
203
1022
1023
1022
1022
1022
1022
1023
1023
1022
857
0
0
0
0
0
0
0
0
0
250
1022
1022
1022
1022
1023
1022
1023
1023
1022
882
0
0
0
0
0
0
0
0
0
247
1022
1023
1023
1022
1023
1022
1023
1022
1022
851
0
0
0
0
0
0
0
0
0
252
1022
1023
1022
1023
1022
1022
1023
1022
1023
851
0
0
0
0
0
0
0
0
0
213
1022
1023
1022
1022
1022
1022
1023
1022
1022
792
0
0
0
0
0
0
0
0
0
315
1022
1022
1023
1022
1022
1022
1023
1022
1022
861
0
0
0
0
0
0
0
0
0
264
1022
1023
1022
1022
1023
1022
1023
1022
1022
792
0
0
0
0
0
0
0
0
0
353
1022
1023
1022
1023
1023
1022
1023
1022
1023
764
0
0
0
0
0
0
0
0
0
310
1022
1023
1023
1022
1023
1022
1022
1022
1022
800
0
0
0
0
0
0
0
0
0
373
1022
1023
1022
1022
1023
1022
1023
1023
1022
667
0
0
0
0
0
0
0
0
0
449
1022
1022
1022
1022
1023
1022
1023
1022
1022
744
0
0
0
0
0
0
0
0
0
353
1022
1023
1022
1022
1022
1022
1022
1023
1022
689
0
0
0
0
0
0
0
0
0
427
1022
1023
1023
1022
1023
1022
1023
1022
1022
718
0
0
0
0
0
0
0
0
0
374
1022
1023
1022
1022
1023
1022
1023
1023
1023
683
0
0
0
0
0
0
0
0
0
437
1022
1023
1022
1022
1022
1022
1023
1022
1022
712
0
0
0
0
0
0
0
0
0
384
1022
1023
1022
1022
1023
1022
1023
1022
1023
619
0
0
0
0
0
0
0
0
0
451
1022
1023
1022
1022
1023
1022
1023
1022
1022
661
0
0
0
0
0
0
0
0
0
427
1022
1023
1023
1022
1022
1022
1023
1023
1022
665
0
0
0
0
0
0
0
0
0
445
1022
1023
1022
1022
1023
1022
1023
1022
1022
654
0
0
0
0
0
0
0
0
0
457
1022
1023
1022
1022
1023
1022
1023
1023
1022
642
0
0
0
0
0
0
0
0
0
478
1022
1023
1023
1023
1022
1022
1022
1023
1022
607
0
0
0
0
0
0
0
0
0
510
1022
1022
1022
1022
1022
1022
1023
1022
1022
600
0
0
0
0
0
0
0
0
0
535
1022
1023
1022
1022
1023
1022
1023
1023
1022
583
0
0
0
0
0
0
0
0
0
474
1023
1022
1022
1022
1022
1023
1023
1022
1022
604
0
0
0
0
0
0
0
0
0
505
1022
1023
1022
1023
1023
1022
1023
1022
1022
571
0
0
0
0
0
0
0
0
0
512
1022
1023
1022
1022
1023
1022
1023
1022
1023
478
0
0
0
0
0
0
0
0
0
743
1022
1023
1022
1022
1022
1022
1023
1022
1022
547
0
0
0
0
0
0
0
0
0
532
1022
1023
1022
1022
1022
1022
1022
1023
1022
492
0
0
0
0
0
0
0
0
0
692
1022
1023
1023
1022
1022
1022
1023
1022
1022
283
0
0
0
0
0
0
0
0
0
590
1022
1022
1022
1023
1022
1022
1023
1023
1020
270
0
0
0
0
0
0
0
0
216
886
1022
1023
1022
1023
1022
1022
1023
1022
1022
492
0
0
0
0
0
0
0
0
0
430
1022
1023
1022
1022
1023
1022
1023
1022
1023
526
0
0
0
0
0
0
0
0
0
477
1022
1023
1022
1022
1023
1022
1022
1022
1022
685
0
0
0
0
0
0
0
0
0
498
1022
1023
1022
1023
1023
1022
1023
1022
1023
673
0
0
0
0
0
0
0
0
0
444
1022
1023
1022
1023
1023
1022
1022
1023
1023
659
0
0
0
0
0
0
0
0
0
463
1022
1022
1022
1022
1022
1022
1023
1023
1022
742
0
0
0
0
0
0
0
0
0
295
1022
1023
1022
1022
1022
1022
1023
1022
1022
713
0
0
0
0
0
0
0
0
0
245
1022
1023
1022
1022
1023
1022
1023
1022
1022
848
0
0
0
0
0
0
0
0
0
294
1022
1023
1022
1022
1023
1022
1023
1023
1022
915
0
0
0
0
0
0
0
0
0
252
1022
1023
1022
1022
1022
1022
1023
1022
1022
842
0
0
0
0
0
0
0
0
0
215
1022
1023
1023
1022
1023
1022
1023
1022
1022
858
0
0
0
0
0
0
0
0
0
298
1022
1023
1022
1022
1022
1022
1023
1023
1023
849
0
0
0
0
0
0
0
0
0
259
1022
1023
1022
1022
1022
1022
1023
1022
1022
789
0
0
0
0
0
0
0
0
0
289
1022
1023
1022
1022
1023
1022
1023
1023
1022
786
0
0
0
0
0
0
0
0
0
315
1022
1022
1022
1022
1023
1022
1023
1022
1022
744
0
0
0
0
0
0
0
0
0
357
1022
1023
1022
1022
1023
1022
1022
1022
1023
687
0
0
0
0
0
0
0
0
0
438
1022
1022
1022
1023
1023
1022
1022
1022
1022
646
0
0
0
0
0
0
0
0
0
397
1022
1023
1022
1022
1022
1022
1022
1023
1023
696
0
0
0
0
0
0
0
0
0
420
1022
1023
1022
1022
1023
1022
1023
1022
1023
687
0
0
0
0
0
0
0
0
0
396
1022
1023
1022
1022
1023
1022
1023
1022
1023
632
0
0
0
0
0
0
0
0
0
540
1022
1023
1022
1022
1022
1022
1023
1023
1022
655
0
0
0
0
0
0
0
0
0
504
1022
1023
1022
1022
1022
1022
1023
1022
1023
499
0
0
0
0
0
0
0
0
0
538
1022
1023
1022
1022
1022
1022
1023
1023
1022
572
0
0
0
0
0
0
0
0
0
533
1022
1023
1022
1022
1022
1022
1023
1023
1022
509
0
0
0
0
0
0
0
0
0
582
1022
1023
1022
1022
1023
1022
1023
1022
1022
466
0
0
0
0
0
0
0
0
0
640
1022
1023
1022
1022
1023
1022
1022
1023
1023
436
0
0
0
0
0
0
0
0
0
674
1022
1023
1022
1022
1023
1022
1023
1022
1022
402
0
0
0
0
0
0
0
0
0
732
1022
1022
1022
1022
1023
1022
1023
1022
1022
316
0
0
0
0
0
0
0
0
0
794
1022
1022
1022
1022
1022
1022
1023
1023
1023
307
0
0
0
0
0
0
0
0
0
839
1023
1023
1022
1023
1022
1022
1023
1022
1022
249
0
0
0
0
0
0
0
0
0
816
1022
1023
1022
1022
1022
1022
1023
1022
1022
232
0
0
0
0
0
0
0
0
0
858
1022
1022
1022
1022
1022
1022
1023
1023
1022
223
0
0
0
0
0
0
0
0
0
869
1022
1023
1022
1022
1023
1022
1023
1022
1022
229
0
0
0
0
0
0
0
0
0
836
1022
1023
1022
1022
1022
1022
1023
1022
1022
231
0
0
0
0
0
0
0
0
0
886
1022
1023
1022
1022
1023
1022
1023
1022
1022
222
0
0
0
0
0
0
0
0
0
883
1022
1023
1022
1022
1023
1022
1023
1022
1022
206
0
0
0
0
0
0
0
0
0
892
1022
1023
1022
1023
1023
1022
1023
1022
1023
217
0
0
0
0
0
0
0
0
0
903
1022
1022
1022
1022
1023
1022
1022
1022
1023
172
0
0
0
0
0
0
0
0
0
925
1022
1022
1023
1023
1023
1022
1023
1022
1022
180
0
0
0
0
0
0
0
0
0
972
1022
1022
1022
1023
1023
1022
1023
1022
1022
129
0
0
0
0
0
0
0
0
0
943
1022
1023
1022
1022
1023
1022
1022
1022
1022
124
0
0
0
0
0
0
0
0
0
931
1023
1023
1022
1022
1022
1022
1023
1022
1022
145
0
0
0
0
0
0
0
0
0
965
1022
1023
1022
1023
1023
1022
1023
1022
1022
132
0
0
0
0
0
0
0
0
0
969
1022
1023
1022
1022
1023
1022
1023
1022
1023
153
0
0
0
0
0
0
0
0
0
941
1022
1023
1022
1022
1023
1022
1023
1023
1023
115
0
0
0
0
0
0
0
0
0
994
1022
1023
1022
1022
1022
1022
1022
1022
1022
87
0
0
0
0
0
0
0
0
0
996
1022
1023
1022
1022
1022
1022
1023
1023
1022
113
0
0
0
0
0
0
0
0
0
954
1022
1023
1022
1022
1023
1022
1023
1022
1022
141
0
0
0
0
0
0
0
0
0
980
1022
1023
1022
1023
1023
1022
1023
1022
1022
125
0
0
0
0
0
0
0
0
0
953
1023
1022
1022
1022
1022
1022
1023
1023
1023
99
0
0
0
0
0
0
0
0
0
979
1022
1023
1022
1023
1023
1022
1023
1022
1022
99
0
0
0
0
0
0
0
0
0
1004
1022
1023
1022
1023
1022
1022
1023
1023
1022
66
0
0
0
0
0
0
0
0
0
1020
1022
1023
1022
1022
1022
1022
1023
1023
1023
60
0
0
0
0
0
0
0
0
0
1018
1022
1023
1022
1022
1022
1022
1023
1022
1022
34
0
0
0
0
0
0
0
0
0
1021
1022
1023
1022
1023
1023
1022
1023
1022
1022
37
0
0
0
0
0
0
0
0
0
1021
1022
1022
1022
1022
1022
1022
1023
1023
1022
11
0
0
0
0
0
0
0
0
0
1022
1022
1023
1022
1022
1022
1022
1023
1022
1022
0
0
0
0
0
0
0
0
0
0
1022
1022
1023
1022
1022
1023
1023
1023
1023
1022
0
0
0
0
0
0
0
0
0
0
1022
1022
1023
1022
1023
1022
1022
1023
1022
1022
0
0
0
0
0
0
0
0
0
0
1022
1022
1023
1023
1022
1023
1022
1022
1023
1023
0
0
0
0
0
0
0
0
0
0
1023
1022
1023
1022
1023
1023
1022
1023
1023
1022
0
0
0
0
0
0
0
0
0
0
1023
1022
1023
1022
1022
1022
1022
1023
1023
1022
0
0
0
0
0
0
0
0
0
0
1022
1022
1023
1022
1022
1023
1022
1023
1022
1022
0
0
0
0
0
0
0
0
0
0
1022
1022
1022
1022
1022
1023
1022
1023
1023
1022
0
0
0
0
0
0
0
0
0
0
1022
1022
1023
1022
1022
1023
1022
1023
1022
1022
0
0
0
0
0
0
0
0
0
0
1022
1022
1022
1022
1022
1023
1022
1023
1022
1022
0
0
0
0
0
0
0
0
0
0
1023
1022
1023
1023
1022
1023
1022
1023
1022
1022
0
0
0
0
0
0
0
0
0
0
1023
1022
1023
1022
1023
1023
1022
1023
1023
1022
0
0
0
0
0
0
0
0
0
0
1023
1022
1023
1022
1022
1023
1022
1022
1022
1022
0
0
0
0
0
0
0
0
0
0
1023
1022
1023
1022
1022
1022
1022
1023
1022
1022
0
0
0
0
0
0
0
0
0
0
1022
1022
1023
1022
1023
1022
1022
1022
1022
1022
0
0
0
0
0
0
0
0
0
0
1023
1022
1023
1022
1022
1023
1022
1022
1022
1023
0
0
0
0
0
0
0
0
0
0
1023
1022
1023
1022
1023
1023
1022
1023
1022
1022
0
0
0
0
0
0
0
0
0
0
1023
1022
1023
1022
1022
1022
1022
1022
1022
1022
0
0
0
0
0
0
0
0
0
0
1023
1022
1023
1022
1022
1022
1022
1023
1022
1022
0
0
0
0
0
0
0
0
0
0
1022
1022
1023
1022
1022
1022
1022
1023
1022
1022
0
0
0
0
0
0
0
0
0
0
1022
1022
1023
1022
1022
1023
1022
1023
1022
1022
0
0
0
0
0
0
0
0
0
0
1023
1022
1023
1022
1022
1022
1022
1023
1022
1022
0
0
0
0
0
0
0
0
0
0
1023
1022
1023
1022
1022
1022
1022
1023
1022
1022
0
0
0
0
0
0
0
0
0
0
1022
1022
1023
1022
1022
1023
1022
1023
1023
1022
0
0
0
0
0
0
0
0
0
137
1022
1022
1023
1022
1023
1022
1022
1023
1022
1022
0
0
0
0
0
0
0
0
0
0
1022
1022
1023
1022
1022
1023
1022
1023
1022
830
0
0
0
0
0
0
0
0
0
0
1023
1022
1023
1023
1022
1022
1022
1023
1022
1022
0
0
0
0
0
0
0
0
0
53
1022
1022
1023
1022
1022
1023
1022
1023
1022
1022
0
0
0
0
0
0
0
0
0
17
1023
1022
1023
1022
1022
1022
1022
1023
1022
1021
0
0
0
0
0
0
0
0
0
0
1023
1023
1023
1022
1022
1023
1022
1022
1022
1023
0
0
0
0
0
0
0
0
0
0
1022
1022
1023
1023
1022
1022
1022
1023
1023
1022
0
0
0
0
0
0
0
0
0
0
1023
1022
1022
1022
1023
1022
1022
1023
1023
916
0
0
0
0
0
0
0
0
0
0
1022
1022
1022
1023
1023
1023
1022
1023
1022
1022
0
0
0
0
0
0
0
0
0
149
1022
1022
1022
1023
1023
1023
1022
1023
1022
988
0
0
0
0
0
0
0
0
0
33
1023
1022
1023
1022
1022
1023
1022
1022
1022
1022
0
0
0
0
0
0
0
0
0
0
1022
1022
1023
1022
1022
1022
1022
1023
1022
793
0
0
0
0
0
0
0
0
0
111
1023
1022
1022
1022
1022
1023
1022
1022
1022
921
0
0
0
0
0
0
0
0
0
293
1023
1022
1022
1022
1023
1022
1022
1023
1022
898
0
0
0
0
0
0
0
0
0
261
1023
1022
1022
1022
1023
1023
1022
1023
1022
842
0
0
0
0
0
0
0
0
0
209
1023
1022
1023
1022
1023
1023
1022
1023
1022
870
0
0
0
0
0
0
0
0
0
222
1023
1022
1023
1022
1022
1023
1022
1022
1023
802
0
0
0
0
0
0
0
0
0
225
1022
1022
1023
1023
1022
1023
1022
1023
1022
783
0
0
0
0
0
0
0
0
0
259
1022
1022
1023
1022
1023
1023
1022
1022
1022
808
0
0
0
0
0
0
0
0
0
354
1023
1022
1022
1022
1023
1023
1022
1023
1022
756
0
0
0
0
0
0
0
0
0
342
1022
1022
1022
1022
1023
1022
1022
1023
1022
703
0
0
0
0
0
0
0
0
0
374
1023
1022
1023
1022
1022
1023
1022
1023
1022
697
0
0
0
0
0
0
0
0
0
376
1023
1022
1022
1023
1023
1023
1022
1022
1022
643
0
0
0
0
0
0
0
0
0
387
1023
1022
1023
1022
1022
1023
1022
1023
1023
694
0
0
0
0
0
0
0
0
0
441
1022
1022
1023
1022
1022
1023
1022
1023
1022
678
0
0
0
0
0
0
0
0
0
475
1022
1022
1023
1022
1022
1022
1022
1023
1022
578
0
0
0
0
0
0
0
0
0
464
1023
1022
1023
1022
1022
1022
1022
1023
1022
568
0
0
0
0
0
0
0
0
0
499
1023
1022
1022
1022
1022
1023
1022
1023
1022
543
0
0
0
0
0
0
0
0
0
455
1023
1022
1023
1022
1022
1022
1022
1023
1022
610
0
0
0
0
0
0
0
0
0
509
1023
1022
1022
1022
1022
1023
1022
1022
1022
615
0
0
0
0
0
0
0
0
0
486
1022
1022
1022
1022
1023
1022
1022
1023
1022
583
0
0
0
0
0
0
0
0
0
491
1022
1022
1023
1022
1022
1023
1022
1023
1022
637
0
0
0
0
0
0
0
0
0
492
1023
1022
1023
1022
1022
1022
1022
1022
1022
539
0
0
0
0
0
0
0
0
0
513
1023
1022
1022
1022
1022
1023
1022
1023
1022
556
0
0
0
0
0
0
0
0
0
486
1023
1022
1023
1023
1022
1022
1022
1023
1022
623
0
0
0
0
0
0
0
0
0
511
1023
1022
1022
1022
1022
1022
1022
1023
1022
606
0
0
0
0
0
0
0
0
0
492
1022
1022
1022
1022
1023
1023
1022
1022
1022
528
0
0
0
0
0
0
0
0
0
516
1022
1022
1022
1022
1023
1023
1022
1023
1023
592
0
0
0
0
0
0
0
0
0
511
1023
1022
1023
1022
1022
1023
1022
1022
1022
527
0
0
0
0
0
0
0
0
0
509
1023
1022
1023
1022
1022
1023
1022
1023
1022
556
0
0
0
0
0
0
0
0
0
548
1023
1022
1023
1022
1023
1023
1022
1023
1022
595
0
0
0
0
0
0
0
0
0
571
1023
1022
1023
1022
1022
1023
1022
1022
1022
525
0
0
0
0
0
0
0
0
0
473
1022
1022
1022
1022
1022
1023
1022
1023
1022
520
0
0
0
0
0
0
0
0
0
587
1022
1022
1022
1022
1022
1022
1022
1023
1022
536
0
0
0
0
0
0
0
0
0
527
1022
1022
1023
1022
1022
1023
1022
1023
1022
507
0
0
0
0
0
0
0
0
0
581
1023
1022
1023
1022
1022
1023
1022
1023
1022
546
0
0
0
0
0
0
0
0
0
536
1022
1022
1023
1022
1023
1023
1022
1022
1022
464
0
0
0
0
0
0
0
0
0
647
1023
1022
1023
1022
1022
1023
1022
1022
1022
469
0
0
0
0
0
0
0
0
0
596
1022
1022
1023
1022
1023
1023
1022
1023
1022
485
0
0
0
0
0
0
0
0
0
677
1022
1022
1023
1022
1023
1022
1022
1023
1022
392
0
0
0
0
0
0
0
0
0
666
1023
1022
1022
1023
1022
1023
1022
1022
1022
372
0
0
0
0
0
0
0
0
0
728
1023
1022
1023
1022
1022
1023
1022
1023
1022
407
0
0
0
0
0
0
0
0
0
696
1023
1022
1023
1023
1023
1023
1022
1022
1022
360
0
0
0
0
0
0
0
0
0
702
1023
1022
1022
1022
1022
1023
1022
1022
1022
362
0
0
0
0
0
0
0
0
0
740
1022
1022
1023
1023
1022
1022
1022
1023
1022
307
0
0
0
0
0
0
0
0
0
817
1023
1022
1022
1022
1022
1023
1022
1022
1022
294
0
0
0
0
0
0
0
0
0
799
1022
1022
1022
1023
1023
1023
1022
1023
1022
300
0
0
0
0
0
0
0
0
0
803
1022
1022
1022
1022
1022
1023
1022
1023
1022
221
0
0
0
0
0
0
0
0
0
791
1023
1022
1022
1022
1023
1023
1022
1022
1022
290
0
0
0
0
0
0
0
0
0
855
1023
1022
1022
1023
1022
1023
1022
1022
1022
225
0
0
0
0
0
0
0
0
0
796
1022
1022
1022
1023
1023
1023
1022
1022
1022
202
0
0
0
0
0
0
0
0
0
934
1022
1022
1022
1022
1022
1022
1022
1022
1022
214
0
0
0
0
0
0
0
0
0
932
1023
1022
1022
1022
1022
1023
1022
1022
1022
193
0
0
0
0
0
0
0
0
0
886
1023
1022
1022
1022
1022
1023
1022
1023
1022
155
0
0
0
0
0
0
0
0
0
898
1023
1022
1022
1023
1022
1022
1022
1022
1022
140
0
0
0
0
0
0
0
0
0
956
1022
1022
1022
1022
1022
1023
1022
1023
1022
108
0
0
0
0
0
0
0
0
0
941
1022
1022
1022
1023
1022
1022
1022
1022
1022
128
0
0
0
0
0
0
0
0
0
1020
1022
1022
1022
1022
1023
1023
1022
1023
1022
104
0
0
0
0
0
0
0
0
0
1000
1022
1022
1023
1022
1023
1023
1022
1022
1022
83
0
0
0
0
0
0
0
0
0
946
1023
1022
1023
1022
1023
1023
1022
1022
1022
77
0
0
0
0
0
0
0
0
0
1020
1023
1022
1022
1022
1023
1023
1022
1023
1022
53
0
0
0
0
0
0
0
0
0
1006
1023
1022
1023
1023
1023
1022
1022
1022
1022
5
0
0
0
0
0
0
0
0
0
1017
1023
1022
1022
1022
1023
1023
1022
1022
1022
2
0
0
0
0
0
0
0
0
0
1022
1022
1022
1023
1022
1022
1022
1022
1023
1022
71
0
0
0
0
0
0
0
0
0
1014
1023
1022
1023
1022
1022
1022
1022
1022
1022
0
0
0
0
0
0
0
0
0
0
1022
1023
1022
1022
1022
1023
1023
1022
1022
1022
31
0
0
0
0
0
0
0
0
0
1022
1022
1022
1022
1022
1023
1023
1022
1023
1022
0
0
0
0
0
0
0
0
0
0
1022
1022
1022
1022
1022
1022
1023
1022
1023
1022
2
0
0
0
0
0
0
0
0
0
1022
1022
1022
1022
1022
1023
1023
1022
1022
1022
2
0
0
0
0
0
0
0
0
0
1022
1023
1022
1023
1022
1023
1022
1022
1023
1022
0
0
0
0
0
0
0
0
0
0
1022
1023
1022
1022
1023
1023
1022
1022
1023
1022
0
0
0
0
0
0
0
0
0
0
1022
1023
1022
1023
1022
1022
1022
1022
1023
1022
0
0
0
0
0
0
0
0
0
0
1022
1022
1022
1022
1022
1022
1023
1022
1022
1022
0
0
0
0
0
0
0
0
0
0
1022
1023
1022
1022
1022
1022
1022
1022
1023
1022
0
0
0
0
0
0
0
0
0
0
1022
1022
1022
1022
1022
1022
1022
1022
1022
1022
0
0
0
0
0
0
0
0
0
0
1022
1023
1022
1022
1022
1023
1022
1022
1022
1022
0
0
0
0
0
0
0
0
0
0
1022
1023
1022
1022
1022
1023
1022
1022
1022
1022
0
0
0
0
0
0
0
0
0
0
1022
1023
1022
1022
1022
1023
1022
1022
1022
1022
0
0
0
0
0
0
0
0
0
0
1022
1022
1022
1022
1022
1022
1022
1022
1022
1022
0
0
0
0
0
0
0
0
0
0
1022
1023
1022
1023
1022
1022
1022
1022
1022
1022
0
0
0
0
0
0
0
0
0
0
1022
1023
1022
1022
1022
1022
1023
1022
1022
1022
0
0
0
0
0
0
0
0
0
0
1022
1023
1022
1022
1022
1022
1023
1022
1023
1022
0
0
0
0
0
0
0
0
0
0
1022
1023
1022
1022
1022
1022
1023
1022
1022
1022
0
0
0
0
0
0
0
0
0
0
1022
1023
1022
1022
1022
1022
1023
1022
1023
1022
0
0
0
0
0
0
0
0
0
0
1022
1023
1022
1022
1022
1022
1023
1022
1022
1022
0
0
0
0
0
0
0
0
0
0
1022
1023
1022
1022
1022
1022
1023
1022
1023
1022
0
0
0
0
0
0
0
0
0
0
1022
1022
1022
1022
1022
1023
1022
1022
1022
1022
0
0
0
0
0
0
0
0
0
0
1022
1023
1022
1022
1022
1022
1022
1022
1022
1022
0
0
0
0
0
0
0
0
0
41
1022
1023
1022
1022
1022
1022
1023
1022
1022
1022
0
0
0
0
0
0
0
0
0
65
1023
1022
1022
1022
1022
1022
1023
1022
1023
1022
0
0
0
0
0
0
0
0
0
182
1022
1022
1022
1022
1022
1023
1023
1022
1022
1014
0
0
0
0
0
0
0
0
0
0
1022
1023
1022
1022
1022
1023
1022
1022
1022
912
0
0
0
0
0
0
0
0
0
251
1022
1022
1022
1023
1022
1023
1022
1022
1022
852
0
0
0
0
0
0
0
0
0
329
1022
1022
1022
1022
1022
1023
1022
1022
1022
467
0
0
0
0
0
0
0
0
0
401
1022
1022
1022
1022
1022
1023
1023
1022
1022
480
0
0
0
0
0
0
0
0
0
134
1023
1023
1022
1022
1022
1023
1023
1022
1022
929
0
0
0
0
0
0
0
0
0
0
1022
1022
1022
1022
1022
1023
1023
1022
1022
1021
0
0
0
0
0
0
0
0
0
0
1022
1023
1022
1022
1022
1022
1022
1022
1022
1022
0
0
0
0
0
0
0
0
0
164
1022
1023
1022
1023
1022
1023
1023
1022
1023
1022
0
0
0
0
0
0
0
0
0
0
1022
1023
1022
1022
1022
1023
1022
1022
1022
1022
0
0
0
0
0
0
0
0
0
0
1022
1023
1022
1022
1022
1023
1023
1022
1022
1022
0
0
0
0
0
0
0
0
0
0
1023
1022
1022
1022
1023
1022
1022
1022
1022
1022
0
0
0
0
0
0
0
0
0
0
1022
1023
1022
1022
1022
1023
1023
1022
1022
1022
0
0
0
0
0
0
0
0
0
62
1023
1023
1022
1022
1022
1022
1023
1022
1023
1022
0
0
0
0
0
0
0
0
0
0
1022
1023
1022
1022
1022
1023
1023
1022
1022
1020
0
0
0
0
0
0
0
0
0
68
1023
1023
1022
1022
1022
1022
1023
1022
1023
1020
0
0
0
0
0
0
0
0
0
43
1022
1022
1022
1022
1023
1022
1022
1022
1022
1022
0
0
0
0
0
0
0
0
0
89
1023
1023
1022
1022
1022
1022
1023
1022
1022
968
0
0
0
0
0
0
0
0
0
88
1022
1023
1022
1022
1022
1022
1023
1022
1022
940
0
0
0
0
0
0
0
0
0
93
1022
1022
1022
1022
1023
1022
1023
1022
1022
1019
0
0
0
0
0
0
0
0
0
117
1022
1023
1022
1022
1022
1023
1022
1022
1022
945
0
0
0
0
0
0
0
0
0
80
1023
1022
1022
1022
1022
1022
1023
1022
1022
975
0
0
0
0
0
0
0
0
0
133
1022
1022
1022
1022
1023
1023
1023
1022
1022
913
0
0
0
0
0
0
0
0
0
150
1022
1023
1022
1022
1022
1022
1023
1022
1022
946
0
0
0
0
0
0
0
0
0
56
1023
1023
1022
1023
1022
1023
1023
1022
1023
924
0
0
0
0
0
0
0
0
0
52
1023
1023
1022
1022
1022
1023
1022
1022
1022
1000
0
0
0
0
0
0
0
0
0
112
1023
1023
1022
1023
1022
1022
1023
1022
1022
1018
0
0
0
0
0
0
0
0
0
136
1023
1023
1022
1022
1022
1022
1022
1022
1023
925
0
0
0
0
0
0
0
0
0
127
1022
1022
1022
1022
1022
1022
1023
1022
1022
863
0
0
0
0
0
0
0
0
0
233
1022
1023
1022
1022
1023
1022
1023
1022
1022
1019
0
0
0
0
0
0
0
0
0
189
1023
1022
1022
1022
1023
1022
1023
1022
1022
838
0
0
0
0
0
0
0
0
0
205
1023
1023
1022
1022
1022
1022
1022
1022
1022
768
0
0
0
0
0
0
0
0
0
287
1022
1023
1022
1022
1022
1023
1023
1022
1022
850
0
0
0
0
0
0
0
0
0
288
1023
1023
1022
1022
1022
1022
1023
1022
1022
800
0
0
0
0
0
0
0
0
0
255
1022
1022
1022
1022
1022
1023
1023
1022
1022
744
0
0
0
0
0
0
0
0
0
277
1022
1023
1022
1022
1022
1022
1022
1022
1022
639
0
0
0
0
0
0
0
0
0
356
1022
1023
1022
1022
1022
1023
1023
1022
1022
776
0
0
0
0
0
0
0
0
0
527
1023
1022
1022
1022
1022
1023
1022
1022
1022
667
0
0
0
0
0
0
0
0
0
231
1022
1022
1022
1022
1022
1023
1023
1022
1022
781
0
0
0
0
0
0
0
0
0
283
1022
1022
1022
1022
1022
1022
1022
1023
1023
788
0
0
0
0
0
0
0
0
0
249
1022
1023
1022
1022
1022
1022
1023
1022
1022
783
0
0
0
0
0
0
0
0
0
293
1022
1022
1022
1023
1022
1023
1022
1022
1022
774
0
0
0
0
0
0
0
0
0
297
1022
1022
1022
1022
1022
1023
1023
1022
1022
777
0
0
0
0
0
0
0
0
0
241
1023
1023
1022
1022
1022
1022
1023
1022
1022
763
0
0
0
0
0
0
0
0
0
342
1023
1023
1022
1022
1022
1023
1023
1022
1022
701
0
0
0
0
0
0
0
0
0
445
1023
1023
1022
1022
1022
1023
1023
1022
1022
624
0
0
0
0
0
0
0
0
0
395
1023
1023
1022
1022
1022
1022
1023
1022
1022
623
0
0
0
0
0
0
0
0
0
434
1022
1022
1022
1022
1022
1022
1023
1022
1023
659
0
0
0
0
0
0
0
0
0
435
1023
1022
1022
1023
1022
1023
1023
1022
1022
615
0
0
0
0
0
0
0
0
0
418
1022
1022
1022
1022
1022
1022
1022
1022
1022
628
0
0
0
0
0
0
0
0
0
469
1022
1022
1022
1022
1022
1023
1022
1022
1022
633
0
0
0
0
0
0
0
0
0
428
1023
1022
1022
1022
1022
1022
1023
1022
1022
660
0
0
0
0
0
0
0
0
0
433
1022
1023
1022
1022
1022
1022
1023
1022
1022
620
0
0
0
0
0
0
0
0
0
433
1023
1023
1022
1022
1022
1022
1023
1022
1022
613
0
0
0
0
0
0
0
0
0
430
1022
1022
1022
1022
1022
1022
1023
1022
1022
647
0
0
0
0
0
0
0
0
0
421
1023
1022
1022
1022
1022
1022
1022
1022
1022
631
0
0
0
0
0
0
0
0
0
415
1022
1022
1022
1022
1022
1022
1023
1022
1022
606
0
0
0
0
0
0
0
0
0
500
1022
1023
1022
1023
1022
1022
1022
1022
1022
587
0
0
0
0
0
0
0
0
0
529
1023
1023
1022
1022
1022
1023
1022
1022
1022
528
0
0
0
0
0
0
0
0
0
555
1023
1023
1022
1023
1022
1022
1022
1022
1022
502
0
0
0
0
0
0
0
0
0
593
1022
1023
1022
1022
1022
1022
1023
1022
1022
459
0
0
0
0
0
0
0
0
0
577
1022
1022
1022
1022
1022
1022
1022
1022
1022
471
0
0
0
0
0
0
0
0
0
620
1022
1023
1022
1022
1022
1022
1023
1022
1022
466
0
0
0
0
0
0
0
0
0
651
1022
1022
1022
1022
1022
1022
1023
1022
1022
437
0
0
0
0
0
0
0
0
0
658
1022
1022
1022
1022
1023
1022
1023
1022
1022
391
0
0
0
0
0
0
0
0
0
684
1023
1023
1022
1022
1023
1023
1022
1022
1022
392
0
0
0
0
0
0
0
0
0
672
1023
1023
1022
1022
1023
1023
1022
1022
1022
381
0
0
0
0
0
0
0
0
0
671
1022
1023
1022
1022
1022
1023
1023
1022
1022
360
0
0
0
0
0
0
0
0
0
705
1022
1023
1022
1022
1022
1022
1023
1022
1022
351
0
0
0
0
0
0
0
0
0
740
1022
1022
1022
1022
1022
1022
1023
1022
1022
313
0
0
0
0
0
0
0
0
0
778
1022
1023
1022
1022
1022
1022
1023
1022
1022
280
0
0
0
0
0
0
0
0
0
807
1023
1023
1022
1022
1022
1023
1022
1022
1022
259
0
0
0
0
0
0
0
0
0
838
1022
1022
1022
1022
1022
1023
1023
1022
1022
238
0
0
0
0
0
0
0
0
0
835
1023
1022
1022
1022
1022
1023
1023
1022
1022
207
0
0
0
0
0
0
0
0
0
851
1022
1022
1022
1022
1022
1023
1022
1022
1022
187
0
0
0
0
0
0
0
0
0
899
1023
1023
1022
1022
1022
1022
1022
1022
1022
173
0
0
0
0
0
0
0
0
0
909
1022
1022
1022
1022
1022
1022
1023
1022
1022
144
0
0
0
0
0
0
0
0
0
942
1022
1023
1022
1022
1023
1023
1023
1022
1022
149
0
0
0
0
0
0
0
0
0
941
1022
1023
1022
1022
1022
1023
1023
1022
1022
136
0
0
0
0
0
0
0
0
0
952
1023
1022
1022
1023
1023
1023
1023
1022
1022
117
0
0
0
0
0
0
0
0
0
967
1023
1022
1022
1022
1022
1023
1023
1022
1022
91
0
0
0
0
0
0
0
0
0
987
1022
1022
1022
1022
1022
1022
1022
1022
1022
83
0
0
0
0
0
0
0
0
0
1012
1023
1023
1022
1022
1022
1023
1022
1022
1022
63
0
0
0
0
0
0
0
0
0
1020
1023
1022
1022
1022
1022
1022
1023
1022
1022
18
0
0
0
0
0
0
0
0
0
1022
1023
1022
1022
1022
1022
1023
1022
1022
1022
0
0
0
0
0
0
0
0
0
0
1021
1023
1023
1022
1022
1022
1023
1023
1022
1022
0
0
0
0
0
0
0
0
0
0
1022
1022
1022
1022
1023
1022
1023
1023
1022
1022
0
0
0
0
0
0
0
0
0
0
1022
1022
1022
1022
1022
1022
1022
1022
1022
1022
0
0
0
0
0
0
0
0
0
0
1022
1022
1022
1022
1022
1022
1023
1023
1022
1022
0
0
0
0
0
0
0
0
0
0
1022
1022
1023
1022
1022
1022
1023
1022
1022
1022
0
0
0
0
0
0
0
0
0
0
1022
1022
1023
1022
1022
1022
1022
1023
1022
1022
0
0
0
0
0
0
0
0
0
0
1022
1022
1023
1022
1022
1022
1023
1023
1022
1022
0
0
0
0
0
0
0
0
0
0
1023
1022
1023
1022
1022
1022
1022
1023
1022
1022
0
0
0
0
0
0
0
0
0
0
1022
1023
1023
1022
1022
1022
1022
1022
1022
1022
0
0
0
0
0
0
0
0
0
0
948
1023
1023
1022
1022
1022
1023
1022
1022
923
0
0
0
0
0
0
0
0
0
0
1022
1023
1023
1022
1022
1022
1022
1023
1022
1022
0
0
0
0
0
0
0
0
0
167
1023
1022
1023
1022
1023
1022
1022
1023
1022
1022
0
0
0
0
0
0
0
0
0
0
1023
1022
1023
1022
1022
1022
1022
1023
1022
984
0
0
0
0
0
0
0
0
0
0
1022
1023
1023
1022
1023
1022
1023
1022
1022
1022
0
0
0
0
0
0
0
0
0
94
1022
1022
1023
1022
1023
1022
1022
1023
1022
1022
0
0
0
0
0
0
0
0
0
0
1022
1023
1023
1022
1023
1023
1022
1023
1022
1022
0
0
0
0
0
0
0
0
0
54
1022
1023
1023
1022
1022
1022
1023
1023
1022
971
0
0
0
0
0
0
0
0
0
60
1023
1023
1023
1022
1022
1022
1023
1023
1022
1022
0
0
0
0
0
0
0
0
0
0
1022
1022
1023
1022
1022
1022
1023
1022
1022
892
0
0
0
0
0
0
0
0
0
0
1022
1022
1022
1022
1023
1022
1022
1023
1022
1022
0
0
0
0
0
0
0
0
0
96
1022
1022
1023
1022
1022
1022
1022
1023
1022
1022
0
0
0
0
0
0
0
0
0
170
1023
1023
1023
1022
1022
1022
1022
1023
1022
1022
0
0
0
0
0
0
0
0
0
83
1022
1023
1023
1022
1022
1022
1023
1022
1022
928
0
0
0
0
0
0
0
0
0
97
1023
1023
1022
1022
1022
1022
1023
1023
1022
924
0
0
0
0
0
0
0
0
0
67
1022
1023
1023
1022
1022
1023
1023
1023
1022
892
0
0
0
0
0
0
0
0
0
97
1022
1022
1022
1022
1022
1022
1022
1023
1022
894
0
0
0
0
0
0
0
0
0
187
1022
1022
1023
1022
1022
1022
1022
1022
1022
1021
0
0
0
0
0
0
0
0
0
290
1022
1023
1022
1022
1022
1022
1022
1023
1022
948
0
0
0
0
0
0
0
0
0
111
1022
1022
1023
1022
1022
1023
1023
1022
1022
836
0
0
0
0
0
0
0
0
0
194
1022
1022
1023
1022
1022
1022
1022
1023
1022
873
0
0
0
0
0
0
0
0
0
128
1022
1023
1022
1022
1022
1022
1022
1023
1022
851
0
0
0
0
0
0
0
0
0
195
1022
1022
1022
1022
1022
1022
1022
1023
1022
1003
0
0
0
0
0
0
0
0
0
260
1022
1023
1023
1022
1022
1022
1022
1023
1022
867
0
0
0
0
0
0
0
0
0
229
1022
1022
1023
1022
1022
1022
1023
1023
1022
852
0
0
0
0
0
0
0
0
0
213
1022
1023
1022
1022
1022
1022
1022
1022
1022
805
0
0
0
0
0
0
0
0
0
217
1022
1022
1022
1022
1022
1023
1023
1023
1022
785
0
0
0
0
0
0
0
0
0
236
1022
1023
1023
1022
1022
1023
1022
1023
1022
870
0
0
0
0
0
0
0
0
0
344
1022
1022
1022
1022
1022
1022
1022
1023
1022
860
0
0
0
0
0
0
0
0
0
267
1022
1022
1023
1022
1023
1022
1022
1023
1022
795
0
0
0
0
0
0
0
0
0
333
1022
1023
1023
1022
1022
1023
1023
1023
1022
740
0
0
0
0
0
0
0
0
0
299
1022
1023
1023
1022
1022
1023
1022
1023
1022
760
0
0
0
0
0
0
0
0
0
325
1022
1022
1022
1022
1022
1022
1023
1023
1022
788
0
0
0
0
0
0
0
0
0
383
1023
1023
1022
1022
1022
1022
1023
1023
1022
694
0
0
0
0
0
0
0
0
0
343
1022
1022
1022
1022
1022
1022
1022
1022
1022
771
0
0
0
0
0
0
0
0
0
399
1022
1022
1023
1022
1022
1022
1022
1023
1022
657
0
0
0
0
0
0
0
0
0
441
1022
1023
1022
1022
1022
1022
1022
1023
1022
693
0
0
0
0
0
0
0
0
0
377
1022
1023
1023
1022
1023
1022
1022
1023
1022
682
0
0
0
0
0
0
0
0
0
429
1022
1023
1023
1022
1023
1022
1023
1023
1022
678
0
0
0
0
0
0
0
0
0
397
1022
1023
1023
1022
1022
1023
1022
1023
1022
661
0
0
0
0
0
0
0
0
0
461
1022
1022
1022
1022
1022
1022
1023
1023
1022
582
0
0
0
0
0
0
0
0
0
489
1023
1022
1023
1023
1022
1022
1022
1023
1022
607
0
0
0
0
0
0
0
0
0
472
1022
1022
1022
1022
1022
1023
1023
1023
1022
584
0
0
0
0
0
0
0
0
0
564
1023
1023
1022
1022
1022
1022
1023
1023
1022
558
0
0
0
0
0
0
0
0
0
565
1022
1023
1023
1022
1022
1023
1023
1023
1022
531
0
0
0
0
0
0
0
0
0
543
1022
1023
1023
1022
1022
1023
1022
1023
1022
504
0
0
0
0
0
0
0
0
0
596
1022
1022
1022
1022
1022
1022
1022
1023
1022
489
0
0
0
0
0
0
0
0
0
610
1022
1022
1023
1022
1022
1022
1023
1022
1022
448
0
0
0
0
0
0
0
0
0
681
1023
1022
1022
1022
1023
1023
1023
1023
1022
455
0
0
0
0
0
0
0
0
0
608
1022
1022
1023
1022
1022
1022
1022
1023
1022
387
0
0
0
0
0
0
0
0
0
642
1022
1022
1023
1022
1023
1022
1022
1023
1022
415
0
0
0
0
0
0
0
0
0
702
1022
1023
1023
1022
1023
1022
1022
1022
1022
415
0
0
0
0
0
0
0
0
0
630
1022
1022
1023
1022
1022
1022
1022
1023
1022
392
0
0
0
0
0
0
0
0
0
771
1023
1023
1023
1022
1022
1022
1023
1023
1022
320
0
0
0
0
0
0
0
0
0
739
1022
1023
1023
1022
1022
1023
1022
1023
1022
330
0
0
0
0
0
0
0
0
0
787
1022
1022
1023
1022
1022
1022
1023
1022
1022
242
0
0
0
0
0
0
0
0
0
795
1022
1023
1022
1022
1023
1022
1023
1023
1022
320
0
0
0
0
0
0
0
0
0
807
1022
1023
1022
1022
1022
1023
1023
1022
1022
291
0
0
0
0
0
0
0
0
0
834
1023
1022
1022
1022
1023
1022
1022
1023
1022
223
0
0
0
0
0
0
0
0
0
918
1022
1023
1023
1022
1022
1022
1022
1023
1022
172
0
0
0
0
0
0
0
0
0
920
1023
1023
1023
1022
1022
1022
1022
1023
1022
152
0
0
0
0
0
0
0
0
0
917
1023
1023
1023
1022
1022
1023
1023
1023
1022
124
0
0
0
0
0
0
0
0
0
903
1022
1022
1023
1022
1022
1022
1023
1023
1022
141
0
0
0
0
0
0
0
0
0
950
1022
1023
1023
1022
1022
1023
1022
1023
1022
147
0
0
0
0
0
0
0
0
0
983
1022
1022
1022
1022
1022
1022
1023
1022
1022
104
0
0
0
0
0
0
0
0
0
976
1023
1022
1023
1022
1022
1022
1023
1023
1022
99
0
0
0
0
0
0
0
0
0
1019
1022
1022
1022
1022
1023
1022
1022
1023
1022
68
0
0
0
0
0
0
0
0
0
956
1022
1022
1023
1022
1022
1023
1023
1023
1022
58
0
0
0
0
0
0
0
0
0
1017
1022
1023
1022
1022
1023
1022
1022
1023
1022
40
0
0
0
0
0
0
0
0
0
1022
1022
1023
1023
1022
1022
1022
1022
1023
1022
0
0
0
0
0
0
0
0
0
0
995
1022
1022
1023
1022
1022
1023
1023
1022
1022
0
0
0
0
0
0
0
0
0
0
1022
1022
1022
1023
1022
1022
1023
1023
1023
1022
2
0
0
0
0
0
0
0
0
0
1022
1022
1022
1023
1022
1022
1022
1023
1023
1022
0
0
0
0
0
0
0
0
0
0
1022
1022
1022
1023
1022
1022
1022
1023
1022
1022
0
0
0
0
0
0
0
0
0
63
1022
1022
1022
1022
1022
1022
1022
1023
1023
1022
0
0
0
0
0
0
0
0
0
0
1022
1022
1023
1023
1022
1022
1022
1022
1022
1021
0
0
0
0
0
0
0
0
0
3
1022
1023
1022
1023
1022
1022
1022
1022
1023
1022
0
0
0
0
0
0
0
0
0
39
1022
1022
1023
1023
1022
1022
1022
1022
1023
1022
0
0
0
0
0
0
0
0
0
0
1022
1023
1023
1023
1022
1022
1022
1022
1023
1022
0
0
0
0
0
0
0
0
0
38
1022
1022
1022
1023
1022
1022
1023
1023
1023
1022
0
0
0
0
0
0
0
0
0
3
1022
1022
1022
1023
1022
1023
1022
1023
1023
1022
0
0
0
0
0
0
0
0
0
167
1022
1022
1022
1022
1022
1022
1022
1022
1022
1022
0
0
0
0
0
0
0
0
0
34
1022
1022
1022
1022
1022
1023
1022
1022
1023
1022
0
0
0
0
0
0
0
0
0
37
1022
1022
1022
1022
1022
1022
1022
1022
1022
1022
0
0
0
0
0
0
0
0
0
77
1022
1022
1022
1022
1022
1022
1022
1023
1023
1022
0
0
0
0
0
0
0
0
0
83
1022
1023
1023
1023
1022
1022
1022
1023
1022
1022
0
0
0
0
0
0
0
0
0
91
1023
1022
1022
1023
1023
1022
1022
1022
1023
1022
0
0
0
0
0
0
0
0
0
91
1022
1022
1022
1023
1022
1022
1022
1022
1023
1022
0
0
0
0
0
0
0
0
0
93
1023
1022
1022
1023
1022
1022
1022
1022
1022
1015
0
0
0
0
0
0
0
0
0
114
1023
1022
1022
1022
1022
1022
1022
1022
1023
981
0
0
0
0
0
0
0
0
0
133
1022
1022
1022
1023
1022
1022
1022
1022
1023
1014
0
0
0
0
0
0
0
0
0
145
1022
1023
1023
1023
1022
1022
1022
1022
1022
937
0
0
0
0
0
0
0
0
0
132
1023
1022
1023
1023
1022
1022
1022
1022
1023
973
0
0
0
0
0
0
0
0
0
144
1022
1022
1022
1023
1022
1022
1022
1022
1022
949
0
0
0
0
0
0
0
0
0
173
1023
1022
1022
1022
1022
1022
1022
1023
1022
929
0
0
0
0
0
0
0
0
0
201
1022
1022
1022
1023
1022
1022
1023
1023
1023
906
0
0
0
0
0
0
0
0
0
180
1022
1022
1023
1023
1022
1022
1023
1022
1023
875
0
0
0
0
0
0
0
0
0
221
1022
1023
1023
1023
1022
1022
1022
1023
1022
862
0
0
0
0
0
0
0
0
0
255
1022
1022
1023
1022
1022
1022
1022
1022
1023
895
0
0
0
0
0
0
0
0
0
236
1022
1022
1022
1022
1022
1022
1022
1022
1022
800
0
0
0
0
0
0
0
0
0
273
1022
1022
1023
1022
1022
1022
1023
1022
1022
856
0
0
0
0
0
0
0
0
0
274
1023
1022
1023
1022
1022
1022
1022
1022
1023
839
0
0
0
0
0
0
0
0
0
265
1022
1022
1022
1022
1022
1023
1022
1023
1022
787
0
0
0
0
0
0
0
0
0
246
1022
1022
1022
1023
1022
1023
1023
1022
1022
858
0
0
0
0
0
0
0
0
0
268
1023
1022
1023
1023
1022
1022
1022
1022
1023
810
0
0
0
0
0
0
0
0
0
295
1022
1022
1022
1022
1022
1022
1022
1022
1022
832
0
0
0
0
0
0
0
0
0
269
1023
1022
1022
1023
1023
1022
1022
1023
1023
799
0
0
0
0
0
0
0
0
0
329
1022
1022
1023
1022
1022
1022
1023
1022
1022
807
0
0
0
0
0
0
0
0
0
214
1022
1023
1022
1022
1022
1023
1022
1023
1023
879
0
0
0
0
0
0
0
0
0
327
1023
1022
1023
1023
1022
1022
1022
1023
1022
747
0
0
0
0
0
0
0
0
0
339
1023
1023
1023
1022
1022
1022
1022
1023
1023
768
0
0
0
0
0
0
0
0
0
374
1023
1022
1022
1023
1022
1022
1022
1022
1022
964
0
0
0
0
0
0
0
0
0
390
1022
1022
1022
1023
1022
1022
1022
1023
1022
668
0
0
0
0
0
0
0
0
0
452
1023
1022
1022
1023
1022
1022
1022
1022
1022
762
0
0
0
0
0
0
0
0
0
134
1022
1022
1022
1023
1022
1022
1022
1023
1022
625
0
0
0
0
0
0
0
0
0
363
1022
1022
1023
1023
1022
1022
1022
1022
1022
875
0
0
0
0
0
0
0
0
0
361
1023
1023
1023
1023
1022
1022
1022
1022
1023
1022
0
0
0
0
0
0
0
0
0
251
1022
1023
1022
1023
1022
1023
1022
1022
1022
796
0
0
0
0
0
0
0
0
0
265
1023
1022
1022
1023
1022
1022
1023
1022
1023
823
0
0
0
0
0
0
0
0
0
160
1022
1022
1023
1023
1022
1022
1022
1022
1023
830
0
0
0
0
0
0
0
0
0
292
1022
1022
1022
1023
1022
1022
1022
1022
1022
884
0
0
0
0
0
0
0
0
0
253
1022
1022
1022
1023
1022
1022
1022
1022
1023
851
0
0
0
0
0
0
0
0
0
241
1023
1022
1022
1023
1022
1022
1022
1022
1022
817
0
0
0
0
0
0
0
0
0
253
1022
1022
1022
1022
1022
1022
1022
1022
1023
806
0
0
0
0
0
0
0
0
0
297
1023
1022
1022
1023
1022
1022
1022
1022
1023
790
0
0
0
0
0
0
0
0
0
316
1022
1022
1023
1022
1022
1022
1022
1023
1022
738
0
0
0
0
0
0
0
0
0
316
1022
1022
1022
1022
1022
1022
1022
1023
1023
793
0
0
0
0
0
0
0
0
0
522
1022
1022
1023
1023
1022
1022
1023
1023
1023
846
0
0
0
0
0
0
0
0
0
210
1023
1022
1023
1023
1022
1022
1023
1022
1022
572
0
0
0
0
0
0
0
0
0
415
1022
1022
1022
1023
1022
1023
1022
1022
1022
687
0
0
0
0
0
0
0
0
0
510
1022
1023
1022
1022
1022
1022
1023
1023
1023
721
0
0
0
0
0
0
0
0
0
437
1022
1022
1022
1023
1022
1022
1022
1022
1022
636
0
0
0
0
0
0
0
0
0
427
1022
1023
1023
1023
1022
1023
1022
1023
1023
571
0
0
0
0
0
0
0
0
0
430
1022
1022
1023
1023
1022
1022
1022
1023
1022
623
0
0
0
0
0
0
0
0
0
568
1023
1022
1022
1022
1022
1022
1022
1022
1023
601
0
0
0
0
0
0
0
0
0
514
1022
1022
1022
1023
1022
1022
1022
1022
1022
545
0
0
0
0
0
0
0
0
0
427
1022
1022
1022
1023
1022
1023
1022
1022
1023
435
0
0
0
0
0
0
0
0
0
676
1022
1022
1022
1023
1022
1022
1022
1022
1022
418
0
0
0
0
0
0
0
0
0
699
1022
1022
1022
1023
1022
1022
1022
1022
1022
510
0
0
0
0
0
0
0
0
0
678
1022
1023
1022
1023
1022
1022
1023
1022
1022
344
0
0
0
0
0
0
0
0
0
758
1022
1022
1022
1022
1022
1022
1022
1022
1022
316
0
0
0
0
0
0
0
0
0
839
1022
1022
1022
1023
1022
1022
1022
1022
1022
327
0
0
0
0
0
0
0
0
0
798
1022
1022
1023
1023
1022
1022
1022
1022
1022
327
0
0
0
0
0
0
0
0
0
757
1023
1022
1022
1023
1022
1022
1022
1023
1022
251
0
0
0
0
0
0
0
0
0
841
1022
1022
1022
1022
1022
1022
1023
1023
1022
275
0
0
0
0
0
0
0
0
0
1016
1023
1023
1022
1023
1022
1022
1022
1022
1022
227
0
0
0
0
0
0
0
0
0
870
1022
1022
1022
1023
1022
1022
1022
1022
1023
231
0
0
0
0
0
0
0
0
0
888
1022
1022
1022
1023
1022
1023
1022
1022
1022
227
0
0
0
0
0
0
0
0
0
908
1022
1023
1023
1023
1022
1023
1023
1023
1022
137
0
0
0
0
0
0
0
0
0
909
1022
1022
1022
1022
1023
1022
1023
1022
1022
153
0
0
0
0
0
0
0
0
0
951
1023
1023
1022
1022
1022
1022
1022
1022
1023
140
0
0
0
0
0
0
0
0
0
926
1022
1022
1023
1023
1022
1022
1022
1022
1022
111
0
0
0
0
0
0
0
0
0
983
1023
1022
1022
1022
1022
1022
1022
1022
1022
115
0
0
0
0
0
0
0
0
0
1013
1022
1022
1022
1022
1022
1022
1022
1022
1022
90
0
0
0
0
0
0
0
0
0
1011
1022
1022
1022
1022
1022
1023
1022
1022
1022
45
0
0
0
0
0
0
0
0
0
1022
1022
1022
1023
1022
1022
1022
1022
1022
1022
5
0
0
0
0
0
0
0
0
0
1022
1022
1022
1023
1022
1022
1022
1022
1023
1022
24
0
0
0
0
0
0
0
0
0
1020
1022
1022
1023
1023
1022
1022
1022
1022
1022
22
0
0
0
0
0
0
0
0
0
1022
1023
1022
1022
1023
1022
1022
1022
1022
1022
0
0
0
0
0
0
0
0
0
0
1022
1022
1022
1022
1023
1022
1022
1022
1023
1022
0
0
0
0
0
0
0
0
0
0
1022
1022
1022
1023
1023
1022
1022
1023
1023
1022
0
0
0
0
0
0
0
0
0
0
1022
1022
1022
1023
1023
1022
1022
1022
1023
1022
0
0
0
0
0
0
0
0
0
0
1022
1022
1022
1022
1022
1022
1022
1022
1022
1022
0
0
0
0
0
0
0
0
0
0
1022
1022
1023
1022
1022
1022
1022
1022
1022
1022
0
0
0
0
0
0
0
0
0
0
1022
1022
1022
1022
1022
1022
1022
1022
1022
1022
0
0
0
0
0
0
0
0
0
0
1022
1022
1022
1022
1022
1022
1022
1022
1022
1022
0
0
0
0
0
0
0
0
0
0
1022
1023
1022
1022
1022
1022
1022
1022
1022
1022
0
0
0
0
0
0
0
0
0
0
1022
1022
1022
1023
1023
1022
1022
1022
1022
1022
0
0
0
0
0
0
0
0
0
16
1022
1023
1022
1023
1022
1022
1022
1023
1022
1022
0
0
0
0
0
0
0
0
0
0
1022
1022
1022
1023
1022
1023
1022
1022
1023
1022
0
0
0
0
0
0
0
0
0
0
1022
1022
1022
1022
1023
1022
1022
1022
1022
1022
0
0
0
0
0
0
0
0
0
54
1023
1023
1022
1022
1022
1022
1022
1022
1022
1022
0
0
0
0
0
0
0
0
0
49
1022
1022
1022
1022
1022
1022
1022
1022
1023
1022
0
0
0
0
0
0
0
0
0
28
1022
1022
1023
1023
1023
1022
1022
1022
1023
1022
0
0
0
0
0
0
0
0
0
46
1022
1023
1022
1022
1022
1022
1022
1022
1022
1022
0
0
0
0
0
0
0
0
0
83
1022
1022
1022
1022
1023
1022
1022
1022
1022
1011
0
0
0
0
0
0
0
0
0
79
1022
1022
1022
1022
1023
1022
1022
1022
1022
1018
0
0
0
0
0
0
0
0
0
125
1022
1023
1022
1022
1023
1022
1022
1022
1022
1022
0
0
0
0
0
0
0
0
0
181
1022
1022
1022
1022
1023
1022
1022
1022
1022
1022
0
0
0
0
0
0
0
0
0
0
1022
1022
1022
1022
1022
1022
1023
1022
1022
1011
0
0
0
0
0
0
0
0
0
271
1023
1023
1022
1022
1022
1022
1022
1022
1022
1022
0
0
0
0
0
0
0
0
0
0
1022
1022
1022
1022
1022
1022
1022
1022
1022
838
0
0
0
0
0
0
0
0
0
871
1022
1022
1022
1022
1023
1022
1022
1022
1022
968
0
0
0
0
0
0
0
0
0
163
1022
1022
1022
1022
1022
1023
1022
1022
1022
746
0
0
0
0
0
0
0
0
0
461
1022
1023
1022
1023
1022
1022
1022
1022
1022
1022
0
0
0
0
0
0
0
0
0
0
1022
1022
1022
1023
1023
1022
1022
1022
1022
670
0
0
0
0
0
0
0
0
0
258
1022
1023
1022
1022
1023
1022
1022
1022
1023
1022
0
0
0
0
0
0
0
0
0
160
1022
1022
1023
1022
1023
1022
1022
1022
1022
844
0
0
0
0
0
0
0
0
0
108
1022
1022
1022
1022
1023
1022
1022
1023
1022
1022
0
0
0
0
0
0
0
0
0
223
1022
1022
1022
1023
1022
1022
1022
1023
1022
867
0
0
0
0
0
0
0
0
0
194
1022
1022
1022
1022
1023
1022
1022
1023
1022
764
0
0
0
0
0
0
0
0
0
209
1022
1022
1023
1022
1023
1023
1022
1022
1023
761
0
0
0
0
0
0
0
0
0
342
1023
1022
1022
1023
1022
1022
1022
1023
1022
906
0
0
0
0
0
0
0
0
0
303
1022
1022
1022
1022
1022
1023
1023
1022
1022
739
0
0
0
0
0
0
0
0
0
362
1022
1022
1022
1022
1022
1022
1022
1022
1022
744
0
0
0
0
0
0
0
0
0
365
1022
1022
1022
1023
1023
1022
1022
1022
1022
670
0
0
0
0
0
0
0
0
0
390
1022
1022
1022
1022
1022
1022
1022
1022
1022
701
0
0
0
0
0
0
0
0
0
457
1022
1022
1022
1023
1022
1022
1022
1022
1022
735
0
0
0
0
0
0
0
0
0
383
1022
1022
1022
1023
1023
1022
1022
1022
1022
656
0
0
0
0
0
0
0
0
0
415
1022
1023
1022
1023
1022
1022
1022
1022
1022
622
0
0
0
0
0
0
0
0
0
467
1022
1023
1022
1022
1022
1022
1022
1023
1022
541
0
0
0
0
0
0
0
0
0
555
1022
1022
1022
1023
1023
1022
1022
1022
1022
586
0
0
0
0
0
0
0
0
0
589
1022
1023
1022
1022
1022
1023
1022
1022
1022
656
0
0
0
0
0
0
0
0
0
537
1022
1022
1022
1022
1022
1022
1022
1023
1022
517
0
0
0
0
0
0
0
0
0
520
1022
1022
1022
1023
1022
1022
1022
1022
1022
565
0
0
0
0
0
0
0
0
0
508
1022
1022
1023
1022
1023
1022
1022
1022
1022
493
0
0
0
0
0
0
0
0
0
579
1022
1022
1022
1022
1022
1022
1022
1022
1022
522
0
0
0
0
0
0
0
0
0
553
1022
1022
1022
1023
1022
1023
1022
1023
1022
540
0
0
0
0
0
0
0
0
0
658
1022
1022
1022
1022
1022
1022
1022
1023
1022
494
0
0
0
0
0
0
0
0
0
613
1022
1022
1022
1022
1022
1022
1023
1022
1022
504
0
0
0
0
0
0
0
0
0
675
1022
1022
1022
1022
1022
1022
1022
1022
1022
482
0
0
0
0
0
0
0
0
0
629
1023
1022
1023
1022
1023
1022
1022
1022
1022
412
0
0
0
0
0
0
0
0
0
670
1023
1022
1022
1022
1022
1022
1022
1022
1022
468
0
0
0
0
0
0
0
0
0
707
1022
1023
1022
1022
1023
1022
1022
1023
1022
408
0
0
0
0
0
0
0
0
0
770
1022
1022
1022
1023
1022
1022
1023
1022
1022
357
0
0
0
0
0
0
0
0
0
720
1022
1022
1022
1022
1023
1023
1022
1022
1022
300
0
0
0
0
0
0
0
0
0
811
1022
1022
1022
1022
1023
1023
1022
1023
1022
325
0
0
0
0
0
0
0
0
0
734
1022
1022
1022
1022
1022
1022
1022
1022
1022
312
0
0
0
0
0
0
0
0
0
878
1022
1022
1022
1022
1022
1022
1023
1022
1022
228
0
0
0
0
0
0
0
0
0
837
1022
1023
1022
1022
1023
1022
1022
1022
1022
205
0
0
0
0
0
0
0
0
0
904
1022
1022
1022
1023
1022
1022
1023
1022
1022
218
0
0
0
0
0
0
0
0
0
912
1022
1022
1023
1023
1023
1022
1022
1022
1022
219
0
0
0
0
0
0
0
0
0
924
1023
1023
1022
1022
1022
1022
1022
1022
1022
151
0
0
0
0
0
0
0
0
0
978
1022
1022
1022
1022
1023
1022
1022
1022
1022
133
0
0
0
0
0
0
0
0
0
975
1022
1022
1022
1022
1022
1023
1022
1023
1022
139
0
0
0
0
0
0
0
0
0
1019
1023
1022
1022
1022
1023
1023
1023
1022
1022
51
0
0
0
0
0
0
0
0
0
1019
1023
1023
1022
1023
1022
1022
1023
1022
1022
61
0
0
0
0
0
0
0
0
0
1022
1023
1022
1023
1022
1022
1023
1023
1022
1022
18
0
0
0
0
0
0
0
0
0
1022
1022
1022
1022
1022
1022
1022
1023
1022
1022
0
0
0
0
0
0
0
0
0
0
1022
1022
1022
1022
1022
1023
1022
1022
1022
1022
0
0
0
0
0
0
0
0
0
0
1022
1022
1022
1022
1022
1022
1023
1022
1022
1022
0
0
0
0
0
0
0
0
0
0
1022
1022
1022
1022
1022
1023
1022
1022
1023
1022
0
0
0
0
0
0
0
0
0
61
1022
1022
1022
1022
1022
1022
1022
1022
1022
1022
0
0
0
0
0
0
0
0
0
0
1022
1022
1022
1023
1022
1022
1022
1022
1022
1022
0
0
0
0
0
0
0
0
0
45
1022
1023
1023
1022
1022
1023
1023
1022
1023
1022
0
0
0
0
0
0
0
0
0
0
1023
1023
1022
1023
1022
1023
1022
1023
1022
1022
0
0
0
0
0
0
0
0
0
86
1022
1023
1023
1022
1022
1022
1022
1022
1022
1022
0
0
0
0
0
0
0
0
0
0
1022
1022
1022
1022
1022
1022
1023
1022
1022
1022
0
0
0
0
0
0
0
0
0
93
1022
1022
1023
1022
1022
1022
1022
1022
1023
1022
0
0
0
0
0
0
0
0
0
81
1022
1022
1022
1022
1023
1022
1023
1022
1022
1022
0
0
0
0
0
0
0
0
0
0
1022
1022
1022
1022
1022
1023
1022
1022
1023
1022
0
0
0
0
0
0
0
0
0
0
1023
1022
1022
1022
1022
1023
1022
1022
1022
1022
0
0
0
0
0
0
0
0
0
65
1022
1023
1022
1022
1022
1023
1022
1022
1022
1007
0
0
0
0
0
0
0
0
0
96
1023
1022
1022
1022
1022
1023
1022
1022
1022
966
0
0
0
0
0
0
0
0
0
141
1022
1023
1023
1022
1022
1022
1022
1022
1022
1022
0
0
0
0
0
0
0
0
0
105
1023
1022
1022
1022
1023
1023
1023
1023
1022
1012
0
0
0
0
0
0
0
0
0
85
1022
1022
1022
1022
1022
1023
1022
1022
1022
978
0
0
0
0
0
0
0
0
0
98
1022
1023
1023
1023
1022
1023
1023
1022
1022
976
0
0
0
0
0
0
0
0
0
174
1023
1022
1023
1023
1022
1022
1023
1022
1022
972
0
0
0
0
0
0
0
0
0
128
1022
1023
1022
1023
1022
1023
1023
1022
1022
944
0
0
0
0
0
0
0
0
0
192
1023
1022
1022
1022
1022
1023
1023
1022
1022
1020
0
0
0
0
0
0
0
0
0
146
1022
1023
1023
1022
1022
1022
1022
1022
1022
929
0
0
0
0
0
0
0
0
0
148
1023
1023
1022
1022
1022
1022
1023
1022
1022
903
0
0
0
0
0
0
0
0
0
138
1022
1022
1022
1023
1022
1022
1022
1022
1022
984
0
0
0
0
0
0
0
0
0
221
1022
1022
1022
1022
1022
1022
1022
1023
1023
871
0
0
0
0
0
0
0
0
0
158
1022
1022
1022
1022
1023
1022
1023
1022
1022
924
0
0
0
0
0
0
0
0
0
249
1022
1023
1023
1022
1022
1022
1023
1022
1022
850
0
0
0
0
0
0
0
0
0
189
1022
1023
1022
1022
1022
1022
1023
1022
1022
828
0
0
0
0
0
0
0
0
0
190
1022
1022
1022
1023
1022
1022
1022
1023
1022
903
0
0
0
0
0
0
0
0
0
328
1022
1023
1022
1022
1022
1023
1022
1022
1022
873
0
0
0
0
0
0
0
0
0
199
1022
1023
1023
1022
1022
1022
1022
1022
1022
829
0
0
0
0
0
0
0
0
0
257
1022
1022
1023
1023
1022
1023
1023
1022
1022
859
0
0
0
0
0
0
0
0
0
236
1022
1022
1022
1022
1022
1022
1023
1023
1022
740
0
0
0
0
0
0
0
0
0
291
1023
1022
1022
1022
1022
1022
1023
1022
1022
799
0
0
0
0
0
0
0
0
0
335
1022
1022
1022
1022
1022
1023
1022
1022
1022
764
0
0
0
0
0
0
0
0
0
382
1023
1022
1022
1022
1023
1023
1023
1023
1022
722
0
0
0
0
0
0
0
0
0
297
1022
1023
1022
1022
1022
1022
1023
1022
1022
870
0
0
0
0
0
0
0
0
0
323
1022
1023
1022
1022
1023
1023
1023
1022
1022
664
0
0
0
0
0
0
0
0
0
357
1022
1023
1023
1023
1023
1023
1022
1022
1022
465
0
0
0
0
0
0
0
0
0
536
1022
1023
1022
1022
1023
1023
1023
1022
1022
728
0
0
0
0
0
0
0
0
155
750
1022
1022
1023
1022
1022
1023
1023
1022
1022
418
0
0
0
0
0
0
0
0
0
700
1022
1023
1023
1022
1022
1022
1022
1022
742
422
0
0
0
0
0
0
0
0
65
768
1022
1023
1022
1022
1022
1022
1022
1023
1022
577
0
0
0
0
0
0
0
0
0
435
1022
1023
1022
1022
1022
1023
1022
1022
1022
575
0
0
0
0
0
0
0
0
132
677
1023
1023
1022
1022
1022
1022
1022
1022
1022
498
0
0
0
0
0
0
0
0
0
609
1022
1022
1023
1022
1023
1022
1023
1022
1022
446
0
0
0
0
0
0
0
0
0
488
1022
1023
1022
1022
1022
1022
1022
1023
1022
565
0
0
0
0
0
0
0
0
0
584
1022
1022
1022
1022
1022
1023
1023
1022
1022
624
0
0
0
0
0
0
0
0
0
545
1023
1022
1023
1022
1022
1022
1022
1022
1022
550
0
0
0
0
0
0
0
0
0
439
1022
1023
1022
1022
1022
1022
1023
1022
1022
575
0
0
0
0
0
0
0
0
0
414
1023
1023
1022
1022
1022
1022
1023
1022
1022
676
0
0
0
0
0
0
0
0
0
421
1022
1022
1022
1022
1022
1023
1023
1022
1022
647
0
0
0
0
0
0
0
0
0
417
1023
1023
1022
1022
1022
1022
1023
1023
1022
651
0
0
0
0
0
0
0
0
0
404
1023
1022
1022
1022
1022
1022
1023
1022
1022
627
0
0
0
0
0
0
0
0
0
436
1022
1023
1023
1022
1022
1023
1023
1022
1022
628
0
0
0
0
0
0
0
0
0
414
1022
1022
1022
1023
1022
1023
1023
1022
1022
640
0
0
0
0
0
0
0
0
0
437
1022
1023
1022
1022
1022
1022
1022
1023
1022
649
0
0
0
0
0
0
0
0
0
455
1022
1022
1022
1022
1023
1022
1023
1022
1022
611
0
0
0
0
0
0
0
0
0
462
1023
1023
1023
1023
1022
1022
1023
1022
1022
611
0
0
0
0
0
0
0
0
0
434
1022
1022
1022
1022
1022
1023
1022
1022
1022
594
0
0
0
0
0
0
0
0
0
444
1022
1023
1022
1023
1023
1022
1023
1022
1022
605
0
0
0
0
0
0
0
0
0
449
1022
1023
1022
1023
1022
1022
1023
1022
1022
619
0
0
0
0
0
0
0
0
0
507
1022
1023
1023
1022
1023
1022
1022
1022
1022
503
0
0
0
0
0
0
0
0
0
492
1022
1022
1022
1022
1023
1022
1023
1022
1022
537
0
0
0
0
0
0
0
0
0
612
1023
1023
1022
1022
1022
1022
1023
1022
1022
445
0
0
0
0
0
0
0
0
0
628
1022
1022
1022
1022
1022
1022
1023
1022
1022
413
0
0
0
0
0
0
0
0
0
704
1023
1023
1022
1022
1022
1023
1023
1022
1022
342
0
0
0
0
0
0
0
0
0
768
1022
1023
1022
1022
1022
1022
1022
1022
1022
262
0
0
0
0
0
0
0
0
0
821
1022
1023
1022
1022
1023
1023
1022
1023
1022
213
0
0
0
0
0
0
0
0
0
876
1022
1022
1022
1022
1023
1023
1023
1022
1022
266
0
0
0
0
0
0
0
0
0
855
1023
1023
1022
1022
1022
1022
1023
1022
1022
157
0
0
0
0
0
0
0
0
0
889
1022
1022
1022
1023
1022
1022
1023
1022
1022
166
0
0
0
0
0
0
0
0
0
963
1023
1023
1022
1023
1022
1023
1023
1022
1022
37
0
0
0
0
0
0
0
0
0
984
1023
1023
1022
1022
1022
1022
1023
1022
1022
38
0
0
0
0
0
0
0
0
0
1011
1022
1023
1022
1022
1022
1022
1022
1023
1022
63
0
0
0
0
0
0
0
0
0
971
1022
1022
1022
1022
1022
1023
1023
1022
1022
118
0
0
0
0
0
0
0
0
0
1022
1023
1023
1022
1022
1022
1022
1022
1023
1022
0
0
0
0
0
0
0
0
0
0
1021
1023
1023
1022
1022
1022
1023
