0
0
1022
1022
1022
1022
1022
1022
1023
0
0
0
0
209
64
776
538
430
0
0
0
0
1022
1022
1022
1022
1022
1022
1022
0
0
0
0
199
59
752
490
396
0
0
0
0
1022
1022
1022
1022
1022
1022
1022
0
0
0
0
215
71
754
526
430
0
0
0
0
1022
1022
1022
1022
1022
1023
1023
0
0
0
0
172
92
767
543
414
0
0
0
0
1022
1023
1023
1022
1022
1022
1022
0
0
0
0
227
122
788
544
442
0
0
0
0
1022
1022
1022
1022
1022
1022
1022
0
0
0
0
205
102
729
498
416
0
0
0
0
1022
1022
1022
1022
1023
1022
1022
0
0
0
0
165
79
717
518
410
0
0
0
0
1022
1022
1023
1022
1022
1022
1022
0
0
0
0
193
103
740
503
389
0
0
0
0
1022
1022
1022
1022
1022
1022
1022
0
0
0
0
139
75
740
469
407
0
0
0
0
1022
1022
1022
1022
1022
1022
1022
0
0
0
0
167
93
717
511
427
0
0
0
0
1022
1022
1022
1022
1022
1023
1022
0
0
0
0
185
100
713
509
388
0
0
0
0
1022
1023
1022
1022
1022
1023
1022
0
0
0
0
172
84
746
465
383
0
0
0
0
1022
1023
1022
1022
1022
1023
1023
0
0
0
0
162
76
705
479
421
0
0
0
0
1023
1022
1022
1022
1022
1022
1023
0
0
0
0
164
83
709
491
384
0
0
0
0
1022
1022
1023
1022
1022
1022
1023
0
0
0
0
156
91
722
464
379
0
0
0
0
1022
1022
1023
1022
1023
1022
1023
0
0
0
0
179
119
708
542
369
0
0
0
0
1022
1023
1023
1022
1022
1022
1022
0
0
0
0
182
103
701
515
372
0
0
0
0
1023
1023
1022
1022
1022
1022
1022
0
0
0
0
177
112
730
498
393
0
0
0
0
1022
1022
1022
1022
1022
1023
1023
0
0
0
0
154
132
734
506
414
0
0
0
0
1022
1023
1022
1022
1022
1023
1022
0
0
0
0
153
139
755
484
411
0
0
0
0
1022
1022
1022
1022
1022
1022
1023
0
0
0
0
182
152
728
526
385
0
0
0
0
1022
1022
1022
1022
1022
1022
1022
0
0
0
0
150
115
687
461
411
0
0
0
0
1022
1022
1022
1022
1022
1023
1023
0
0
0
0
184
147
710
495
388
0
0
0
0
1023
1023
1022
1022
1022
1022
1022
0
0
0
0
180
172
719
480
364
0
0
0
0
1022
1022
1023
1022
1022
1022
1022
0
0
0
0
171
133
722
460
396
0
0
0
0
1022
1022
1023
1022
1022
1022
1022
0
0
0
0
191
161
724
527
410
0
0
0
0
1022
1022
1023
1022
1022
1022
1022
0
0
0
0
160
119
684
498
335
0
0
0
0
1022
1022
1022
1022
1022
1022
1022
0
0
0
0
173
147
732
467
390
0
0
0
0
1022
1022
1022
1022
1022
1022
1022
0
0
0
0
153
137
745
472
425
0
0
0
0
1022
1022
1022
1022
1022
1022
1022
0
0
0
0
170
153
729
519
356
0
0
0
0
1023
1022
1023
1022
1023
1022
1022
0
0
0
0
169
153
699
477
383
0
0
0
0
1022
1022
1023
1022
1022
1022
1022
0
0
0
0
178
187
739
494
394
0
0
0
0
1022
1022
1022
1022
1022
1022
1022
0
0
0
0
195
180
738
522
424
0
0
0
0
1022
1022
1023
1022
1022
1022
1023
0
0
0
0
214
195
756
513
400
0
0
0
0
1022
1022
1022
1022
1022
1023
1022
0
0
0
0
174
174
708
471
407
0
0
0
0
1022
1022
1022
1022
1022
1023
1022
0
0
0
0
215
236
794
547
466
0
0
0
0
1022
1022
1022
1022
1022
1022
1022
0
0
0
0
190
209
726
519
412
0
0
0
0
1022
1022
1022
1022
1022
1022
1022
0
0
0
0
179
208
740
522
413
0
0
0
0
1022
1022
1022
1022
1022
1022
1022
0
0
0
0
185
218
729
550
399
0
0
0
0
1023
1022
1022
1022
1022
1022
1022
0
0
0
0
209
233
723
483
389
0
0
0
0
1022
1022
1022
1022
1022
1022
1022
0
0
0
0
175
218
721
518
429
0
0
0
0
1022
1022
1022
1022
1022
1022
1022
0
0
0
0
186
227
734
501
390
0
0
0
0
1022
1022
1023
1022
1022
1022
1022
0
0
0
0
195
250
755
495
400
0
0
0
0
1022
1022
1023
1022
1022
1022
1022
0
0
0
0
203
241
754
479
417
0
0
0
0
1022
1022
1022
1022
1022
1022
1022
0
0
0
0
266
314
786
498
431
0
0
0
0
1022
1022
1023
1022
1022
1022
1022
0
0
0
0
220
297
756
517
421
0
0
0
0
1022
1022
1023
1022
1022
1022
1022
0
0
0
0
205
253
755
550
423
0
0
0
0
1023
1023
1023
1022
1022
1022
1022
0
0
0
0
179
246
751
483
433
0
0
0
0
1023
1022
1022
1022
1022
1023
1022
0
0
0
0
173
274
765
543
380
0
0
0
0
1023
1023
1022
1022
1022
1022
1022
0
0
0
0
145
247
744
487
387
0
0
0
0
1022
1022
1022
1022
1022
1023
1022
0
0
0
62
220
209
678
379
355
0
0
0
0
1022
1022
1022
1022
1022
1022
1022
0
0
0
24
192
230
775
494
434
0
0
0
0
1022
1022
1022
1022
1022
1023
1023
0
0
0
0
215
273
720
486
412
0
0
0
0
1022
1022
1022
1022
1022
1022
1022
0
0
0
0
184
286
723
498
444
0
0
0
0
1022
1022
1022
1022
1022
1023
1022
0
0
0
0
167
275
719
467
397
0
0
0
0
1023
1023
1022
1022
1022
1022
1022
0
0
0
0
172
286
734
492
411
0
0
0
0
1022
1022
1022
1022
1022
1022
1022
0
0
0
0
175
289
747
521
435
0
0
0
0
1022
1023
1022
1022
1022
1022
1022
0
0
0
0
203
312
743
514
440
0
0
0
0
1023
1022
1022
1022
1022
1022
1022
0
0
0
0
120
275
704
404
328
0
0
0
0
1022
1022
1022
1022
1022
1022
1022
0
0
0
0
139
245
700
472
401
0
0
0
0
1022
1022
1022
1022
1022
1023
1022
0
0
0
0
189
303
693
499
379
0
0
0
0
1022
1022
1023
1022
1022
1022
1022
0
0
0
39
155
266
684
459
360
0
0
0
0
1022
1022
1022
1022
1022
1022
1021
0
0
0
0
184
326
734
502
450
0
0
0
0
1022
1022
1023
1022
1022
1022
1022
0
0
0
0
184
345
731
537
401
0
0
0
0
1022
1022
1022
1022
1022
1022
1018
0
0
0
0
182
337
737
492
361
0
0
0
0
1022
1022
1023
1022
1022
1022
1022
0
0
0
0
180
334
743
524
412
0
0
0
0
1022
1022
1022
1022
1022
1022
955
0
0
0
0
177
324
714
494
425
0
0
0
0
1022
1022
1023
1022
1022
1023
1020
0
0
0
0
173
345
692
506
339
0
0
0
0
1022
1022
1022
1022
1022
1022
860
0
0
0
0
164
342
685
487
384
0
0
0
0
1022
1022
1023
1022
1022
1022
924
0
0
0
0
119
362
746
539
395
0
0
0
0
1022
1023
1022
1022
1022
1022
796
0
0
0
0
181
396
783
527
464
0
0
0
0
1023
1022
1022
1022
1022
1022
1016
0
0
0
0
213
406
755
513
415
0
0
0
0
1022
1022
1022
1022
1022
1022
813
0
0
0
76
127
297
624
424
243
0
0
0
0
1022
1023
1023
1022
1022
1022
912
0
0
0
46
78
232
601
455
372
0
0
0
0
1022
1022
1022
1022
1022
1022
537
0
0
0
135
209
411
781
561
471
0
0
0
0
1022
1023
1022
1022
1022
1023
721
0
0
0
0
176
386
729
464
361
0
0
0
0
1022
1022
1022
1022
1023
1023
648
0
0
0
0
155
391
732
534
405
0
0
0
0
1022
1022
1022
1022
1022
1022
660
0
0
0
0
152
390
721
529
392
0
0
0
0
1022
1022
1023
1022
1022
1022
592
0
0
0
0
159
399
751
541
427
0
0
0
0
1023
1022
1023
1022
1022
1022
545
0
0
0
0
131
417
858
597
369
0
0
0
0
1022
1022
1023
1022
1022
1022
495
0
0
0
98
127
344
691
491
415
0
0
0
0
1022
1022
1023
1022
1022
1022
588
0
0
0
13
115
351
717
481
369
0
0
0
0
1022
1022
1022
1022
1022
1023
495
0
0
0
99
167
405
750
473
409
0
0
0
0
1022
1022
1022
1022
1022
1022
401
0
0
0
117
123
356
708
567
419
0
0
0
0
1022
1022
1022
1022
1022
1022
401
0
0
0
110
175
373
716
440
388
0
0
0
0
1022
1022
1023
1022
1022
1022
413
0
0
0
85
150
386
697
447
404
0
0
0
0
1022
1022
1023
1022
1022
1022
339
0
0
0
57
127
415
701
451
379
0
0
0
0
1022
1022
1023
1022
1022
1022
322
0
0
0
123
156
445
703
518
367
0
0
0
0
1022
1022
1022
1022
1022
1022
235
0
0
0
41
155
451
730
468
400
0
0
0
0
1022
1022
1022
1022
1022
1022
271
0
0
0
9
155
449
695
476
393
0
0
0
0
1022
1022
1022
1022
1022
1022
220
0
0
0
0
148
475
739
527
419
0
0
0
0
1022
1022
1023
1022
1022
1022
252
0
0
0
31
164
493
734
493
401
0
0
0
0
1022
1022
1022
1022
1022
1022
238
0
0
0
80
177
472
688
512
377
0
0
0
0
1022
1022
1022
1022
1022
1022
176
0
0
0
177
143
437
655
430
293
0
0
0
0
1022
1022
1023
1022
1022
1023
104
0
0
0
174
150
463
680
461
357
0
0
0
0
1022
1022
1022
1022
1022
1022
64
0
0
0
119
117
429
668
434
355
0
0
0
0
1022
1022
1022
1022
1022
1022
27
0
0
0
163
168
507
717
497
367
0
0
0
0
1022
1022
1022
1022
1022
1022
46
0
0
0
93
105
433
669
460
371
0
0
0
0
1022
1022
1022
1022
1022
1022
13
0
0
0
155
196
533
719
493
375
0
0
0
0
1022
1022
1023
1022
1022
1022
0
0
0
0
118
115
471
672
476
355
0
0
0
0
1022
1022
1022
1022
1022
1022
0
0
0
0
88
182
569
728
480
390
0
0
0
0
1022
1022
1022
1022
1022
1022
0
0
0
0
87
159
440
673
419
361
0
0
0
0
1022
1022
1022
1022
1022
1022
0
0
0
0
179
162
519
659
423
299
0
0
0
0
1022
1022
1022
1022
1022
1022
0
0
0
0
224
185
502
684
491
319
0
0
0
0
1022
1022
1022
1022
1022
1022
0
0
0
0
157
140
485
659
414
332
0
0
0
0
1022
1023
1022
1022
1022
1022
0
0
0
0
134
78
451
615
402
333
0
0
0
0
1022
1022
1022
1022
1022
1022
0
0
0
0
108
90
493
606
428
332
0
0
0
0
1022
1022
1023
1022
1022
1022
0
0
0
0
74
84
496
696
440
273
0
0
0
0
1022
1022
1023
1022
1022
1023
0
0
0
0
78
82
504
614
454
268
0
0
0
0
1022
1022
1023
1022
1022
1022
0
0
0
0
66
106
480
692
419
320
0
0
0
0
1022
1022
1022
1022
1022
1022
0
0
0
0
74
104
484
645
491
264
0
0
0
0
1023
1023
1023
1022
1022
1022
0
0
0
0
0
137
500
612
449
277
0
0
0
0
1023
1022
1022
1022
1022
1022
0
0
0
0
59
65
488
670
505
304
0
0
0
0
1022
1022
1022
1022
1022
1022
0
0
0
0
114
140
539
632
447
307
0
0
0
0
1022
1022
1022
1022
1022
1022
0
0
0
0
159
71
469
595
440
272
0
0
0
0
1022
1023
1022
1022
1022
1022
0
0
0
0
162
140
577
543
423
251
0
0
0
0
1022
1022
1022
1022
1022
1022
0
0
0
0
213
131
551
587
432
197
0
0
0
0
1022
1022
1022
1022
1022
1022
0
0
0
0
124
88
531
604
425
356
0
0
0
0
1022
1022
1022
1022
1022
1022
0
0
0
0
167
85
539
636
409
266
0
0
0
0
1022
1023
1022
1022
1022
1022
0
0
0
0
82
86
543
679
476
325
0
0
0
0
1022
1022
1022
1022
1022
1023
0
0
0
0
91
111
587
649
461
282
0
0
0
0
1022
1022
1022
1022
1022
1022
0
0
0
0
80
93
568
622
455
268
0
0
0
0
1022
1022
1022
1022
1022
1022
0
0
0
0
112
110
584
630
452
250
0
0
0
0
1022
1023
1022
1022
1022
1022
0
0
0
0
102
101
572
678
431
239
0
0
0
0
1022
1022
1022
1022
1022
1022
0
0
0
0
147
91
550
599
451
259
0
0
0
0
1022
1022
1022
1022
1022
1022
0
0
0
0
183
80
555
576
427
225
0
0
0
0
1022
1022
1022
1022
1022
1022
0
0
0
0
171
84
577
652
449
226
0
0
0
0
1022
1022
1022
1022
1022
1022
0
0
0
0
142
105
598
649
427
223
0
0
0
0
1022
1022
1022
1022
1022
1022
0
0
0
0
132
91
604
617
455
198
0
0
0
0
1022
1022
1022
1022
1022
1022
0
0
0
0
123
110
613
635
456
193
0
0
0
0
1022
1022
1023
1022
1022
1022
0
0
0
0
125
88
607
652
447
181
0
0
0
0
1022
1023
1022
1022
1022
1022
0
0
0
0
145
91
606
646
481
168
0
0
0
0
1022
1022
1022
1022
1022
1022
0
0
0
0
139
91
609
631
445
170
0
0
0
0
1022
1022
1022
1022
1022
1022
0
0
0
0
117
100
607
632
467
130
0
0
0
0
1022
1023
1022
1022
1022
1022
0
0
0
0
199
64
560
590
416
121
0
0
0
0
1022
1022
1022
1022
1022
1022
0
0
0
0
167
80
609
601
451
124
0
0
0
0
1022
1022
1022
1022
1022
1022
0
0
0
0
166
83
622
619
451
111
0
0
0
0
1022
1022
1022
1022
1022
1022
0
0
0
0
175
80
612
625
440
102
0
0
0
0
1022
1022
1022
1022
1022
1022
0
0
0
0
140
88
632
659
452
89
0
0
0
0
1022
1022
1022
1022
1022
1022
0
0
0
0
139
89
630
615
436
79
0
0
0
0
1022
1022
1022
1022
1022
1022
0
0
0
0
134
81
626
609
447
71
0
0
0
0
1022
1022
1022
1022
1022
1022
0
0
0
0
140
74
622
623
441
45
0
0
0
0
1022
1022
1022
1022
1022
1022
0
0
0
0
152
81
639
647
426
30
0
0
0
0
1022
1022
1022
1022
1022
1022
0
0
0
0
175
67
639
660
412
15
0
0
0
0
1022
1022
1022
1022
1022
1022
0
0
0
0
211
56
609
576
427
7
0
0
0
33
1022
1022
1022
1022
1022
1022
0
0
0
0
210
62
636
600
457
0
0
0
0
0
1022
1022
1022
1022
1022
1022
0
0
0
0
179
77
658
661
424
0
0
0
0
19
1022
1022
1022
1022
1022
1022
0
0
0
0
180
67
662
629
435
0
0
0
0
48
1022
1022
1022
1022
1023
1022
0
0
0
0
174
68
679
593
463
0
0
0
0
60
1022
1022
1023
1022
1022
1022
0
0
0
0
185
65
656
597
459
0
0
0
0
63
1022
1022
1022
1022
1023
1022
0
0
0
0
158
78
679
615
444
0
0
0
0
126
1022
1022
1022
1022
1022
1022
0
0
0
0
192
75
665
595
440
0
0
0
0
115
1022
1022
1022
1022
1022
1022
0
0
0
0
189
55
665
617
423
0
0
0
0
108
1022
1022
1022
1022
1022
1022
0
0
0
0
162
74
686
622
437
0
0
0
0
185
1022
1022
1022
1022
1022
1022
0
0
0
0
169
71
702
622
434
0
0
0
0
191
1022
1022
1022
1022
1022
1022
0
0
0
0
233
42
653
588
417
0
0
0
0
264
1022
1022
1022
1022
1022
1022
0
0
0
0
251
23
631
564
411
0
0
0
0
287
1022
1022
1022
1022
1022
1022
0
0
0
0
189
60
678
579
438
0
0
0
0
230
1022
1022
1022
1022
1022
1022
0
0
0
0
199
16
665
599
425
0
0
0
0
272
1022
1022
1022
1022
1022
1022
0
0
0
0
178
59
700
596
423
0
0
0
0
289
1022
1022
1023
1022
1022
1022
0
0
0
0
184
56
709
606
434
0
0
0
0
281
1022
1022
1023
1022
1022
1022
0
0
0
0
198
54
704
620
428
0
0
0
0
308
1022
1022
1022
1022
1022
1022
0
0
0
0
174
66
700
607
418
0
0
0
0
351
1022
1022
1022
1022
1022
1022
0
0
0
0
203
32
701
611
412
0
0
0
0
386
1022
1022
1022
1022
1022
1022
0
0
0
0
206
42
712
575
423
0
0
0
0
416
1022
1022
1022
1022
1022
1022
0
0
0
0
188
37
694
633
388
0
0
0
0
452
1022
1022
1023
1022
1022
1022
0
0
0
0
222
16
672
559
397
0
0
0
0
611
1022
1022
1022
1022
1022
1022
0
0
0
0
230
10
667
564
420
0
0
0
0
606
1022
1022
1022
1022
1022
1022
0
0
0
0
219
13
665
593
413
0
0
0
0
504
1022
1022
1022
1022
1022
1022
0
0
0
0
181
43
704
602
407
0
0
0
0
537
1022
1022
1022
1022
1022
1022
0
0
0
0
184
40
721
570
417
0
0
0
0
568
1022
1022
1022
1022
1022
1022
0
0
0
0
199
30
724
590
441
0
0
0
0
541
1022
1022
1022
1022
1022
1022
0
0
0
0
197
47
736
588
416
0
0
0
0
576
1022
1022
1022
1022
1022
1022
0
0
0
0
181
39
753
568
433
0
0
0
0
648
1022
1023
1022
1022
1022
1022
0
0
0
0
183
20
736
584
387
0
0
0
0
617
1022
1022
1023
1022
1022
1022
0
0
0
0
58
0
605
450
316
0
0
0
0
276
1022
1022
1023
1022
1022
1022
0
0
0
0
220
141
839
684
563
0
0
0
0
1014
1022
1022
1022
1022
1022
1022
0
0
0
0
531
269
952
729
508
0
0
0
0
1022
1022
1022
1023
1022
1022
1022
0
0
0
0
220
0
671
458
228
0
0
0
0
0
1022
1022
1022
1022
1022
1022
0
0
0
0
594
258
900
582
372
0
0
0
0
660
1022
1022
1022
1022
1022
1023
0
0
0
0
0
0
704
792
631
0
0
0
0
0
1022
1022
1022
1022
1022
1022
0
0
0
0
543
306
927
539
272
0
0
0
0
602
1022
1022
1022
1022
1022
1022
0
0
0
0
290
12
700
535
288
0
0
0
0
1018
1022
1022
1022
1023
1022
1022
0
0
0
0
0
226
1022
678
487
0
0
0
0
1016
1022
1022
1023
1022
1022
1022
0
0
0
0
0
0
759
661
584
0
0
0
0
1022
1022
1022
1022
1022
1022
1022
0
0
0
0
294
124
890
687
489
0
0
0
0
853
1022
1022
1022
1022
1022
1022
0
0
0
0
155
0
638
405
230
0
0
0
0
1022
1022
1022
1023
1022
1022
1022
0
0
0
0
242
0
601
427
386
0
0
0
0
1022
1022
1022
1022
1022
1022
1022
0
0
0
0
223
42
730
557
417
0
0
0
0
1022
1022
1022
1022
1022
1022
1023
0
0
0
0
0
0
537
417
353
0
0
0
0
1022
1022
1022
1022
1022
1022
1022
0
0
0
0
259
52
775
583
467
0
0
0
0
1022
1022
1023
1022
1022
1022
1022
0
0
0
0
170
0
696
505
337
0
0
0
0
503
1022
1022
1022
1022
1022
1022
0
0
0
0
411
695
1023
1023
1022
0
0
0
0
1022
1022
1022
1022
1022
1022
1022
0
0
0
0
525
390
1022
757
493
0
0
0
0
1022
1022
1022
1023
1022
1022
1022
0
0
0
0
486
292
861
455
133
0
0
0
0
1022
1022
1022
1022
1022
1022
1022
0
0
0
0
280
56
818
268
27
0
0
0
0
915
1022
1022
1022
1022
1022
1022
0
0
0
0
378
212
830
518
306
0
0
0
0
1022
1022
1022
1022
1022
1022
1022
0
0
0
0
67
0
607
443
371
0
0
0
0
1022
1022
1022
1022
1022
1022
1022
0
0
0
0
193
26
715
543
428
0
0
0
0
1022
1022
1022
1023
1022
1022
1022
0
0
0
0
277
0
463
62
80
0
0
0
0
1022
1022
1022
1022
1022
1022
1022
0
0
0
0
122
58
795
628
579
0
0
0
0
1022
1022
1022
1022
1022
1022
1022
0
0
0
0
394
153
772
546
324
0
0
0
0
1022
1022
1022
1022
1022
1022
1022
0
0
0
0
184
50
816
584
457
0
0
0
0
1022
1022
1022
1022
1022
1022
1022
0
0
0
0
252
116
824
636
501
0
0
0
0
1022
1022
1022
1022
1023
1022
1022
0
0
0
0
120
0
600
351
192
0
0
0
0
1022
1022
1022
1022
1023
1022
1022
0
0
0
0
217
89
801
527
451
0
0
0
0
1022
1022
1022
1022
1023
1022
1022
0
0
0
0
130
0
750
477
380
0
0
0
0
1022
1022
1022
1022
1023
1022
1022
0
0
0
0
227
95
820
632
492
0
0
0
0
1022
1022
1022
1022
1022
1022
1022
0
0
0
0
233
71
766
538
398
0
0
0
0
1022
1022
1022
1022
1022
1022
1022
0
0
0
0
198
38
751
491
372
0
0
0
0
1022
1022
1022
1023
1022
1022
1022
0
0
0
0
235
64
777
575
422
0
0
0
0
1022
1022
1022
1022
1022
1022
1022
0
0
0
0
225
103
797
600
391
0
0
0
0
1023
1022
1022
1023
1023
1022
1022
0
0
0
0
191
62
748
467
369
0
0
0
0
1022
1022
1022
1023
1022
1022
1022
0
0
0
0
211
125
782
548
448
0
0
0
0
1022
1023
1022
1022
1022
1022
1022
0
0
0
0
193
82
745
501
429
0
0
0
0
1022
1022
1023
1022
1022
1022
1022
0
0
0
0
185
86
768
538
411
0
0
0
0
1022
1022
1022
1022
1022
1022
1022
0
0
0
0
199
94
761
502
383
0
0
0
0
1022
1022
1022
1022
1022
1022
1022
0
0
0
0
171
84
764
529
389
0
0
0
0
1022
1022
1022
1022
1023
1022
1022
0
0
0
0
165
77
740
493
379
0
0
0
0
1022
1022
1022
1022
1022
1022
1022
0
0
0
0
204
105
732
499
379
0
0
0
0
1022
1022
1022
1022
1023
1022
1022
0
0
0
0
195
124
776
591
435
0
0
0
0
1022
1023
1022
1022
1022
1022
1023
0
0
0
0
266
179
824
556
435
0
0
0
0
1022
1022
1022
1023
1022
1022
1022
0
0
0
0
193
148
754
504
395
0
0
0
0
1022
1022
1022
1022
1022
1022
1022
0
0
0
0
174
131
763
531
397
0
0
0
0
1022
1022
1023
1022
1022
1022
1022
0
0
0
0
169
138
780
515
397
0
0
0
0
1022
1022
1023
1022
1022
1022
1022
0
0
0
0
186
159
789
516
435
0
0
0
0
1022
1022
1023
1022
1022
1022
1023
0
0
0
0
205
175
799
539
428
0
0
0
0
1022
1022
1022
1022
1022
1022
1022
0
0
0
0
216
190
760
536
393
0
0
0
0
1022
1022
1023
1022
1023
1022
1023
0
0
0
0
180
163
770
501
425
0
0
0
0
1022
1022
1022
1022
1023
1022
1022
0
0
0
0
190
186
761
498
444
0
0
0
0
1022
1022
1022
1022
1022
1022
1022
0
0
0
0
183
197
761
506
457
0
0
0
0
1022
1022
1022
1022
1022
1022
1022
0
0
0
0
179
136
711
489
399
0
0
0
0
1022
1022
1022
1022
1023
1022
1022
0
0
0
0
198
193
731
490
402
0
0
0
0
1022
1022
1022
1022
1022
1022
1022
0
0
0
0
153
157
714
475
377
0
0
0
0
1022
1023
1022
1022
1022
1022
1022
0
0
0
0
132
168
711
478
369
0
0
0
0
1022
1022
1022
1022
1022
1022
1022
0
0
0
0
174
211
742
487
428
0
0
0
0
1022
1022
1022
1022
1023
1022
1022
0
0
0
0
202
251
785
517
426
0
0
0
0
1022
1022
1022
1022
1023
1022
1022
0
0
0
0
155
215
756
483
400
0
0
0
0
1022
1022
1023
1022
1022
1022
1022
0
0
0
0
136
199
726
504
364
0
0
0
0
1022
1022
1023
1022
1023
1022
1022
0
0
0
0
175
238
751
462
395
0
0
0
0
1022
1022
1023
1022
1022
1022
1022
0
0
0
0
170
240
776
518
423
0
0
0
0
1022
1022
1022
1022
1022
1022
1022
0
0
0
0
185
245
749
493
417
0
0
0
0
1022
1022
1023
1022
1022
1022
1022
0
0
0
0
156
221
713
482
416
0
0
0
0
1022
1022
1022
1022
1023
1022
1022
0
0
0
0
159
238
734
489
417
0
0
0
0
1022
1023
1022
1022
1022
1022
1022
0
0
0
0
155
270
758
471
394
0
0
0
0
1022
1022
1023
1022
1023
1022
1022
0
0
0
0
150
281
791
536
467
0
0
0
0
1022
1022
1023
1022
1023
1022
1021
0
0
0
0
187
303
763
512
400
0
0
0
0
1022
1022
1022
1022
1023
1022
996
0
0
0
0
154
278
743
523
369
0
0
0
0
1022
1022
1022
1022
1022
1022
978
0
0
0
0
154
295
758
490
443
0
0
0
0
1022
1022
1022
1022
1022
1022
921
0
0
0
0
177
301
735
495
398
0
0
0
0
1022
1022
1023
1022
1022
1022
825
0
0
0
0
143
330
755
496
405
0
0
0
0
1022
1022
1023
1022
1022
1022
743
0
0
0
0
159
288
734
460
426
0
0
0
0
1022
1022
1022
1022
1023
1022
641
0
0
0
60
181
326
757
479
431
0
0
0
0
1022
1022
1022
1022
1023
1022
739
0
0
0
56
132
278
666
440
404
0
0
0
0
1022
1022
1022
1022
1023
1022
498
0
0
0
0
135
326
732
479
400
0
0
0
0
1022
1022
1022
1022
1022
1022
746
0
0
0
0
159
338
719
445
369
0
0
0
0
1022
1022
1023
1022
1023
1022
479
0
0
0
0
115
340
738
479
396
0
0
0
0
1022
1022
1022
1022
1023
1022
392
0
0
0
0
49
319
699
477
391
0
0
0
0
1022
1022
1022
1022
1023
1022
400
0
0
0
0
52
316
701
432
379
0
0
0
0
1022
1022
1022
1022
1023
1022
344
0
0
0
0
141
385
744
536
414
0
0
0
0
1022
1022
1022
1022
1023
1022
223
0
0
0
0
167
431
753
494
380
0
0
0
0
1022
1022
1023
1022
1023
1022
194
0
0
0
0
139
411
660
494
342
0
0
0
0
1022
1022
1023
1022
1023
1022
187
0
0
0
0
146
385
674
487
335
0
0
0
0
1022
1022
1023
1022
1023
1022
81
0
0
0
43
83
344
661
414
358
0
0
0
0
1022
1022
1023
1022
1023
1022
143
0
0
0
0
104
375
671
472
343
0
0
0
0
1022
1022
1023
1022
1023
1022
71
0
0
0
0
138
404
658
425
350
0
0
0
0
1022
1022
1022
1022
1022
1022
2
0
0
0
43
87
379
636
387
315
0
0
0
0
1022
1022
1022
1022
1023
1022
0
0
0
0
0
98
423
686
423
348
0
0
0
0
1022
1022
1023
1022
1023
1022
0
0
0
0
0
106
443
690
463
382
0
0
0
0
1022
1022
1023
1022
1022
1022
0
0
0
0
0
113
452
662
444
343
0
0
0
0
1022
1022
1022
1022
1023
1022
0
0
0
0
0
118
451
690
457
371
0
0
0
0
1022
1022
1023
1022
1023
1022
0
0
0
0
60
123
437
687
427
335
0
0
0
0
1022
1022
1023
1022
1023
1022
0
0
0
0
39
82
457
642
451
369
0
0
0
0
1022
1022
1023
1022
1022
1022
0
0
0
0
163
125
437
633
433
346
0
0
0
0
1022
1022
1022
1022
1023
1022
0
0
0
0
145
110
457
699
436
327
0
0
0
0
1023
1022
1022
1022
1022
1022
0
0
0
0
59
128
483
702
437
354
0
0
0
0
1022
1022
1022
1023
1023
1022
0
0
0
0
113
131
517
707
470
356
0
0
0
0
1022
1023
1022
1022
1022
1023
0
0
0
0
100
127
538
701
467
342
0
0
0
0
1022
1022
1022
1023
1023
1022
0
0
0
0
82
127
535
709
465
340
0
0
0
0
1022
1022
1022
1022
1023
1022
0
0
0
0
66
133
543
718
483
344
0
0
0
0
1022
1022
1022
1022
1023
1022
0
0
0
0
114
137
541
697
472
348
0
0
0
0
1022
1022
1022
1022
1023
1022
0
0
0
0
98
117
525
701
467
340
0
0
0
0
1022
1022
1023
1022
1022
1022
0
0
0
0
184
108
494
681
452
344
0
0
0
0
1022
1022
1023
1022
1023
1022
0
0
0
0
166
116
508
680
444
318
0
0
0
0
1022
1022
1023
1022
1023
1022
0
0
0
0
125
128
570
700
446
349
0
0
0
0
1022
1022
1023
1022
1022
1022
0
0
0
0
102
124
545
710
471
326
0
0
0
0
1022
1023
1023
1022
1023
1022
0
0
0
0
135
118
552
737
455
342
0
0
0
0
1022
1022
1022
1022
1023
1022
0
0
0
0
168
98
528
702
424
348
0
0
0
0
1022
1022
1022
1022
1023
1022
0
0
0
0
133
111
573
668
473
295
0
0
0
0
1022
1022
1022
1022
1023
1022
0
0
0
0
90
122
598
686
473
279
0
0
0
0
1022
1022
1022
1023
1023
1022
0
0
0
0
167
110
597
679
446
286
0
0
0
0
1022
1022
1022
1023
1023
1022
0
0
0
0
172
116
592
649
455
267
0
0
0
0
1022
1022
1023
1022
1022
1022
0
0
0
0
130
120
614
688
474
251
0
0
0
0
1022
1022
1023
1022
1023
1022
0
0
0
0
197
110
572
644
486
217
0
0
0
0
1022
1022
1022
1022
1023
1022
0
0
0
0
159
110
610
660
447
248
0
0
0
0
1022
1022
1022
1022
1023
1022
0
0
0
0
169
105
583
667
462
251
0
0
0
0
1022
1022
1022
1022
1023
1022
0
0
0
0
170
115
577
678
466
230
0
0
0
0
1022
1022
1023
1022
1022
1022
0
0
0
0
160
107
597
677
451
231
0
0
0
0
1022
1022
1022
1022
1023
1022
0
0
0
0
121
109
620
672
453
223
0
0
0
0
1022
1022
1022
1023
1023
1022
0
0
0
0
136
112
609
683
457
214
0
0
0
0
1022
1022
1023
1022
1023
1022
0
0
0
0
127
121
629
682
492
203
0
0
0
0
1022
1023
1023
1022
1023
1022
0
0
0
0
193
94
588
657
437
192
0
0
0
0
1022
1022
1023
1022
1023
1022
0
0
0
0
171
105
593
647
438
212
0
0
0
0
1022
1022
1022
1022
1023
1022
0
0
0
0
170
102
609
676
448
220
0
0
0
0
1022
1022
1023
1022
1023
1022
0
0
0
0
227
87
591
636
444
162
0
0
0
0
1022
1022
1022
1022
1023
1022
0
0
0
0
197
83
605
631
446
151
0
0
0
0
1022
1022
1022
1022
1023
1022
0
0
0
0
256
71
598
651
437
150
0
0
0
0
1022
1022
1022
1022
1023
1022
0
0
0
0
184
102
618
640
470
148
0
0
0
0
1022
1022
1023
1022
1023
1022
0
0
0
0
151
99
629
641
458
128
0
0
0
0
1022
1022
1022
1022
1023
1022
0
0
0
0
160
102
650
679
471
77
0
0
0
0
1022
1022
1023
1022
1022
1022
0
0
0
0
152
107
653
664
450
99
0
0
0
71
1022
1022
1022
1022
1023
1022
0
0
0
0
173
94
660
657
466
87
0
0
0
44
1022
1022
1022
1022
1023
1022
0
0
0
0
169
95
663
662
463
70
0
0
0
0
1022
1022
1022
1022
1023
1022
0
0
0
0
161
117
660
660
425
87
0
0
0
8
1022
1022
1022
1022
1023
1022
0
0
0
0
174
85
653
627
451
39
0
0
0
88
1022
1023
1023
1022
1022
1022
0
0
0
0
231
89
635
627
432
20
0
0
0
60
1022
1022
1023
1022
1022
1022
0
0
0
0
226
73
660
657
441
5
0
0
0
63
1022
1022
1023
1022
1023
1022
0
0
0
0
177
78
692
637
435
15
0
0
0
123
1022
1022
1023
1022
1023
1022
0
0
0
0
163
88
678
620
431
0
0
0
0
160
1022
1022
1023
1022
1023
1022
0
0
0
0
220
45
608
609
388
0
0
0
0
107
1022
1022
1023
1022
1023
1022
0
0
0
0
183
33
613
622
428
0
0
0
0
111
1022
1022
1023
1022
1023
1022
0
0
0
0
204
131
735
657
451
2
0
0
0
62
1022
1022
1022
1022
1023
1022
0
0
0
0
287
163
762
711
466
0
0
0
0
319
1022
1023
1023
1022
1023
1022
0
0
0
0
216
79
684
617
420
0
0
0
0
82
1022
1022
1022
1022
1023
1022
0
0
0
0
93
0
584
519
357
0
0
0
0
70
1022
1022
1023
1022
1023
1022
0
0
0
0
219
179
838
760
573
81
0
0
0
331
1022
1022
1022
1022
1023
1022
0
0
0
0
343
248
920
894
670
60
0
0
0
342
1022
1022
1022
1022
1022
1022
0
0
0
0
200
39
659
581
361
0
0
0
0
0
1022
1022
1022
1022
1023
1022
0
0
0
0
176
125
742
615
344
0
0
0
0
30
1022
1022
1022
1022
1023
1022
0
0
0
0
252
128
774
664
477
0
0
0
0
454
1022
1022
1022
1022
1023
1022
0
0
0
0
271
76
707
573
404
0
0
0
0
484
1022
1022
1022
1022
1023
1023
0
0
0
0
180
9
645
580
384
0
0
0
0
415
1022
1022
1022
1022
1023
1022
0
0
0
0
185
34
707
631
439
0
0
0
0
553
1022
1022
1022
1022
1023
1022
0
0
0
0
148
0
626
543
390
0
0
0
0
484
1022
1022
1022
1022
1023
1022
0
0
0
0
252
110
766
685
550
0
0
0
0
587
1022
1022
1023
1022
1022
1022
0
0
0
0
255
10
610
516
327
0
0
0
0
516
1022
1022
1022
1022
1023
1022
0
0
0
0
120
0
595
555
413
0
0
0
0
632
1022
1022
1023
1022
1023
1022
0
0
0
0
233
0
635
535
358
0
0
0
0
639
1022
1022
1023
1022
1023
1022
0
0
0
0
212
65
705
607
401
0
0
0
0
799
1022
1023
1023
1022
1022
1022
0
0
0
0
154
0
613
539
333
0
0
0
0
739
1022
1022
1022
1022
1023
1022
0
0
0
0
198
70
678
571
393
0
0
0
0
933
1022
1022
1022
1022
1023
1022
0
0
0
0
213
22
671
558
401
0
0
0
0
893
1022
1022
1022
1022
1023
1023
0
0
0
0
77
12
715
646
472
0
0
0
0
883
1022
1023
1023
1022
1023
1022
0
0
0
0
126
0
657
509
352
0
0
0
0
779
1022
1022
1022
1022
1022
1022
0
0
0
0
0
0
497
364
183
0
0
0
0
658
1022
1022
1022
1022
1023
1022
0
0
0
0
367
195
851
696
510
0
0
0
0
1023
1022
1022
1022
1022
1023
1022
0
0
0
0
127
0
587
453
363
0
0
0
0
845
1022
1022
1023
1022
1022
1022
0
0
0
0
213
54
719
593
450
0
0
0
0
801
1022
1022
1023
1022
1023
1022
0
0
0
0
233
65
707
583
478
0
0
0
0
1022
1022
1023
1022
1022
1023
1022
0
0
0
0
39
0
511
351
226
0
0
0
0
1021
1022
1022
1022
1022
1023
1022
0
0
0
0
205
2
685
511
412
0
0
0
0
904
1022
1022
1023
1022
1023
1022
0
0
0
0
123
0
698
594
364
0
0
0
0
977
1022
1022
1023
1022
1023
1022
0
0
0
0
179
19
739
563
355
0
0
0
0
801
1022
1022
1022
1022
1023
1022
0
0
0
0
203
51
750
577
456
0
0
0
0
853
1022
1022
1023
1022
1023
1022
0
0
0
0
230
41
776
636
500
0
0
0
0
905
1022
1022
1023
1022
1023
1022
0
0
0
0
155
0
665
540
383
0
0
0
0
1021
1022
1022
1023
1022
1023
1022
0
0
0
0
274
30
724
541
379
0
0
0
0
942
1022
1023
1023
1022
1023
1022
0
0
0
0
207
3
751
551
438
0
0
0
0
1019
1022
1022
1023
1022
1023
1022
0
0
0
0
280
237
999
793
592
0
0
0
0
1020
1022
1022
1023
1022
1022
1022
0
0
0
0
263
36
734
549
360
0
0
0
0
880
1022
1022
1022
1022
1023
1022
0
0
0
0
258
48
790
603
453
0
0
0
0
1021
1022
1022
1022
1022
1023
1022
0
0
0
0
170
0
754
556
403
0
0
0
0
1022
1022
1022
1022
1022
1023
1022
0
0
0
0
161
0
760
597
480
0
0
0
0
997
1022
1022
1023
1022
1023
1022
0
0
0
0
234
59
816
623
460
0
0
0
0
1022
1022
1023
1023
1022
1023
1022
0
0
0
0
208
17
769
572
408
0
0
0
0
1020
1022
1022
1022
1022
1023
1022
0
0
0
0
210
22
782
568
409
0
0
0
0
1023
1022
1022
1022
1022
1023
1022
0
0
0
0
206
0
722
545
422
0
0
0
0
1023
1022
1022
1022
1022
1022
1022
0
0
0
0
228
0
716
557
371
0
0
0
0
1023
1022
1022
1022
1022
1023
1022
0
0
0
0
172
0
708
562
403
0
0
0
0
1023
1023
1022
1022
1022
1023
1022
0
0
0
0
250
48
777
577
443
0
0
0
0
1022
1022
1023
1022
1022
1023
1022
0
0
0
0
204
15
756
573
413
0
0
0
0
1022
1022
1023
1022
1022
1023
1022
0
0
0
0
184
0
723
558
426
0
0
0
0
1022
1022
1022
1022
1022
1023
1022
0
0
0
0
222
29
789
566
483
0
0
0
0
1023
1022
1022
1023
1022
1023
1022
0
0
0
0
195
11
786
560
423
0
0
0
0
1022
1022
1023
1022
1022
1023
1022
0
0
0
0
204
30
783
570
419
0
0
0
0
1023
1022
1022
1023
1022
1023
1022
0
0
0
0
250
39
784
590
439
0
0
0
0
1023
1022
1022
1022
1022
1023
1022
0
0
0
0
211
0
736
516
412
0
0
0
0
1023
1022
1022
1022
1022
1023
1022
0
0
0
0
231
25
735
558
412
0
0
0
0
1023
1022
1022
1022
1022
1023
1022
0
0
0
0
183
22
758
567
403
0
0
0
0
1023
1022
1022
1023
1022
1023
1022
0
0
0
0
209
0
736
512
400
0
0
0
0
1023
1022
1022
1023
1022
1022
1022
0
0
0
0
257
25
776
563
444
0
0
0
0
1023
1022
1023
1023
1022
1023
1022
0
0
0
0
217
32
786
571
485
0
0
0
0
1023
1022
1022
1023
1022
1022
1023
0
0
0
0
187
13
756
527
456
0
0
0
0
1023
1022
1022
1022
1022
1022
1022
0
0
0
0
222
0
768
526
425
0
0
0
0
1023
1022
1023
1023
1022
1023
1022
0
0
0
0
204
42
812
586
486
0
0
0
0
1023
1022
1022
1022
1022
1022
1022
0
0
0
0
219
48
808
587
408
0
0
0
0
1023
1022
1022
1022
1022
1023
1022
0
0
0
0
229
62
777
540
414
0
0
0
0
1023
1022
1022
1022
1022
1023
1022
0
0
0
0
198
27
790
572
410
0
0
0
0
1023
1022
1022
1022
1022
1022
1022
0
0
0
0
179
0
761
524
390
0
0
0
0
1022
1022
1022
1023
1022
1023
1022
0
0
0
0
175
40
750
528
435
0
0
0
0
1023
1022
1023
1022
1022
1023
1022
0
0
0
0
234
82
824
608
448
0
0
0
0
1023
1022
1022
1022
1022
1022
1022
0
0
0
0
213
63
784
560
409
0
0
0
0
1023
1022
1022
1023
1022
1023
1022
0
0
0
0
196
42
784
541
409
0
0
0
0
1023
1022
1023
1023
1022
1023
1022
0
0
0
0
207
76
788
586
431
0
0
0
0
1022
1022
1022
1022
1022
1023
1022
0
0
0
0
235
63
769
584
384
0
0
0
0
1023
1022
1022
1022
1022
1022
1022
0
0
0
0
220
52
771
571
436
0
0
0
0
1022
1022
1022
1023
1022
1023
1022
0
0
0
0
177
74
786
575
422
0
0
0
0
1022
1022
1022
1023
1022
1022
1022
0
0
0
0
212
70
747
543
372
0
0
0
0
1023
1022
1023
1022
1022
1023
1022
0
0
0
0
213
61
776
551
416
0
0
0
0
1023
1022
1022
1022
1022
1022
1022
0
0
0
0
210
93
802
564
417
0
0
0
0
1022
1022
1022
1022
1022
1022
1022
0
0
0
0
235
130
817
609
458
0
0
0
0
1023
1022
1022
1022
1022
1022
1022
0
0
0
0
247
129
769
567
404
0
0
0
0
1022
1022
1022
1022
1022
1022
1022
0
0
0
0
238
114
780
582
442
0
0
0
0
1023
1022
1022
1022
1022
1022
1022
0
0
0
0
223
158
802
609
435
0
0
0
0
1022
1022
1023
1022
1022
1023
1022
0
0
0
0
221
168
780
565
397
0
0
0
0
1022
1022
1022
1022
1022
1023
1022
0
0
0
0
239
167
790
575
401
0
0
0
0
1022
1022
1022
1022
1022
1022
1022
0
0
0
0
222
167
782
598
425
0
0
0
0
1023
1022
1022
1023
1022
1022
1022
0
0
0
0
222
146
769
550
399
0
0
0
0
1022
1022
1022
1022
1022
1022
1022
0
0
0
0
215
126
736
547
401
0
0
0
0
1022
1022
1023
1023
1022
1022
1022
0
0
0
0
250
126
724
551
403
0
0
0
0
1022
1022
1022
1022
1022
1022
1022
0
0
0
0
211
176
787
585
443
0
0
0
0
1022
1022
1022
1023
1022
1023
1022
0
0
0
0
212
178
767
524
417
0
0
0
0
1023
1022
1022
1023
1022
1022
1022
0
0
0
0
194
195
775
575
435
0
0
0
0
1022
1022
1022
1023
1022
1022
1022
0
0
0
0
210
209
780
568
439
0
0
0
0
1022
1022
1022
1022
1022
1023
1022
0
0
0
0
222
235
790
547
437
0
0
0
0
1022
1022
1022
1023
1022
1023
1022
0
0
0
0
222
196
786
569
422
0
0
0
0
1022
1022
1022
1022
1022
1022
1022
0
0
0
0
192
231
736
568
449
0
0
0
0
1023
1022
1022
1022
1022
1022
1022
0
0
0
0
228
220
770
556
406
0
0
0
0
1022
1022
1022
1023
1022
1022
1022
0
0
0
0
193
220
794
598
527
0
0
0
0
1022
1022
1022
1022
1022
1022
1022
0
0
0
0
210
244
739
563
379
0
0
0
0
1022
1022
1022
1022
1022
1023
1022
0
0
0
0
175
207
680
524
384
0
0
0
0
1022
1022
1023
1023
1022
1022
1022
0
0
0
0
202
265
746
517
375
0
0
0
0
1022
1022
1022
1022
1022
1022
1022
0
0
0
0
197
297
724
523
406
0
0
0
0
1022
1022
1022
1023
1022
1023
1022
0
0
0
0
179
297
724
515
401
0
0
0
0
1022
1022
1022
1022
1022
1022
1021
0
0
0
0
219
288
688
531
411
0
0
0
0
1022
1022
1022
1023
1022
1023
910
0
0
0
0
139
289
724
497
379
0
0
0
0
1022
1022
1022
1022
1022
1022
807
0
0
0
0
151
300
723
499
385
0
0
0
0
1022
1022
1022
1023
1022
1022
777
0
0
0
0
171
309
734
544
369
0
0
0
0
1022
1022
1022
1022
1022
1023
689
0
0
0
0
146
296
711
490
364
0
0
0
0
1022
1022
1023
1022
1022
1022
622
0
0
0
0
173
286
699
518
371
0
0
0
0
1022
1022
1022
1022
1022
1023
552
0
0
0
44
162
299
659
463
353
0
0
0
0
1023
1022
1023
1022
1022
1022
477
0
0
0
0
121
318
683
515
393
0
0
0
0
1022
1022
1022
1022
1022
1022
426
0
0
0
0
160
382
706
505
423
0
0
0
0
1022
1022
1022
1022
1022
1023
431
0
0
0
0
191
348
721
510
428
0
0
0
0
1022
1022
1023
1022
1022
1022
329
0
0
0
0
144
361
696
510
388
0
0
0
0
1022
1022
1023
1022
1022
1022
275
0
0
0
0
147
404
675
543
369
0
0
0
0
1022
1022
1022
1022
1022
1022
208
0
0
0
0
149
432
672
513
366
0
0
0
0
1022
1022
1022
1023
1022
1022
146
0
0
0
1
140
393
689
480
407
0
0
0
0
1022
1022
1022
1022
1022
1022
56
0
0
0
3
134
402
675
496
390
0
0
0
0
1022
1022
1022
1022
1022
1022
39
0
0
0
1
144
428
671
515
371
0
0
0
0
1022
1022
1023
1022
1022
1022
0
0
0
0
66
134
408
673
502
371
0
0
0
0
1022
1022
1022
1022
1022
1022
0
0
0
0
126
133
408
656
473
366
0
0
0
0
1022
1022
1022
1022
1022
1022
0
0
0
0
99
165
446
676
495
379
0
0
0
0
1022
1022
1022
1022
1022
1023
0
0
0
0
61
125
486
658
515
367
0
0
0
0
1022
1022
1022
1022
1022
1022
0
0
0
0
60
139
495
666
487
352
0
0
0
0
1022
1022
1022
1022
1022
1022
0
0
0
0
66
137
476
694
477
407
0
0
0
0
1022
1022
1022
1022
1022
1022
0
0
0
0
67
138
507
684
503
359
0
0
0
0
1022
1022
1023
1022
1022
1022
0
0
0
0
72
168
502
674
508
352
0
0
0
0
1023
1022
1023
1022
1022
1022
0
0
0
0
67
137
531
680
517
355
0
0
0
0
1023
1022
1023
1023
1022
1022
0
0
0
0
67
158
558
701
516
331
0
0
0
0
1022
1022
1022
1023
1022
1022
0
0
0
0
128
124
554
654
491
327
0
0
0
0
1022
1022
1022
1022
1022
1022
0
0
0
0
199
115
543
605
472
337
0
0
0
0
1022
1022
1022
1022
1022
1022
0
0
0
0
187
98
533
636
477
298
0
0
0
0
1023
1022
1023
1023
1022
1022
0
0
0
0
123
108
572
671
484
311
0
0
0
0
1022
1022
1022
1022
1022
1022
0
0
0
0
145
122
582
677
477
282
0
0
0
0
1022
1022
1022
1022
1022
1022
0
0
0
0
150
126
587
659
513
281
0
0
0
0
1022
1022
1022
1022
1022
1022
0
0
0
0
151
126
593
664
489
258
0
0
0
0
1022
1022
1023
1022
1022
1022
0
0
0
0
168
100
600
679
467
245
0
0
0
0
1022
1022
1023
1022
1022
1022
0
0
0
0
127
133
596
639
482
233
0
0
0
0
1022
1022
1022
1022
1022
1022
0
0
0
0
178
129
606
619
495
194
0
0
0
0
1022
1022
1022
1022
1022
1022
0
0
0
0
189
100
618
646
475
188
0
0
0
0
1022
1022
1022
1022
1022
1022
0
0
0
0
217
116
578
600
470
131
0
0
0
54
1022
1022
1023
1022
1022
1022
0
0
0
0
191
99
648
613
472
129
0
0
0
59
1022
1022
1022
1022
1022
1022
0
0
0
0
163
90
647
648
481
115
0
0
0
52
1022
1022
1022
1022
1022
1022
0
0
0
0
222
89
648
645
438
92
0
0
0
130
1022
1022
1023
1023
1022
1022
0
0
0
0
142
112
686
649
482
77
0
0
0
167
1022
1022
1023
1022
1022
1022
0
0
0
0
165
95
695
644
491
35
0
0
0
191
1022
1022
1022
1022
1022
1022
0
0
0
0
162
107
655
625
475
7
0
0
0
215
1022
1022
1022
1022
1022
1022
0
0
0
0
205
71
668
623
432
0
0
0
0
252
1022
1022
1022
1022
1022
1022
0
0
0
0
183
120
672
626
464
0
0
0
0
296
1022
1022
1022
1022
1022
1022
0
0
0
0
215
70
666
616
462
0
0
0
0
324
1022
1022
1022
1022
1022
1022
0
0
0
0
209
67
676
629
449
0
0
0
0
364
1022
1022
1022
1022
1022
1022
0
0
0
0
242
51
648
603
444
0
0
0
0
410
1022
1022
1023
1022
1022
1022
0
0
0
0
243
47
675
624
440
0
0
0
0
424
1022
1022
1023
1022
1022
1022
0
0
0
0
201
57
687
604
440
0
0
0
0
515
1022
1022
1023
1022
1022
1022
0
0
0
0
203
59
696
602
457
0
0
0
0
547
1022
1022
1023
1022
1022
1022
0
0
0
0
208
65
707
634
470
0
0
0
0
538
1022
1022
1022
1022
1022
1022
0
0
0
0
198
56
716
629
437
0
0
0
0
543
1022
1022
1022
1023
1022
1022
0
0
0
0
202
64
737
612
464
0
0
0
0
593
1022
1022
1023
1023
1022
1022
0
0
0
0
206
57
718
616
448
0
0
0
0
597
1022
1022
1023
1022
1022
1022
0
0
0
0
235
79
688
632
417
0
0
0
0
650
1022
1022
1023
1022
1022
1022
0
0
0
0
224
44
700
604
452
0
0
0
0
695
1022
1022
1022
1022
1022
1022
0
0
0
0
222
40
699
594
451
0
0
0
0
800
1022
1022
1023
1023
1022
1022
0
0
0
0
240
20
679
599
425
0
0
0
0
813
1022
1022
1023
1022
1022
1022
0
0
0
0
216
17
716
612
409
0
0
0
0
849
1022
1022
1023
1022
1022
1022
0
0
0
0
215
35
723
610
428
0
0
0
0
859
1022
1022
1022
1022
1022
1022
0
0
0
0
216
39
750
624
455
0
0
0
0
840
1022
1022
1023
1022
1022
1022
0
0
0
0
251
35
756
614
428
0
0
0
0
902
1022
1022
1022
1023
1022
1022
0
0
0
0
249
15
731
601
431
0
0
0
0
942
1022
1022
1023
1022
1022
1022
0
0
0
0
210
65
743
606
425
0
0
0
0
980
1022
1022
1022
1022
1022
1022
0
0
0
0
204
27
758
609
435
0
0
0
0
1018
1022
1022
1023
1022
1022
1022
0
0
0
0
219
22
757
614
428
0
0
0
0
1015
1022
1022
1022
1022
1022
1022
0
0
0
0
231
15
714
586
416
0
0
0
0
1022
1022
1022
1023
1023
1022
1022
0
0
0
0
219
12
714
600
415
0
0
0
0
1022
1022
1022
1022
1022
1022
1022
0
0
0
0
204
20
759
593
444
0
0
0
0
1022
1022
1022
1022
1022
1022
1022
0
0
0
0
254
11
736
611
432
0
0
0
0
1022
1022
1022
1022
1022
1022
1022
0
0
0
0
216
33
755
602
416
0
0
0
0
1022
1022
1022
1022
1022
1022
1022
0
0
0
0
244
3
752
591
426
0
0
0
0
1022
1022
1022
1022
1022
1022
1022
0
0
0
0
209
40
737
585
426
0
0
0
0
1022
1022
1022
1022
1023
1022
1022
0
0
0
0
216
25
730
614
422
0
0
0
0
1022
