0
0
0
0
0
0
591
1023
1023
1022
1023
1022
1023
1023
1022
0
0
0
0
0
0
0
0
0
464
590
1022
1022
1023
1022
1023
1022
1023
1023
1022
231
0
0
33
0
0
0
1022
1022
1022
1023
1022
1022
1023
1022
1023
1022
1022
1023
1022
556
0
0
389
0
0
0
1022
1022
1022
1023
1023
1022
1023
1022
1023
1023
1023
1023
1023
501
0
0
0
0
0
0
0
766
1022
1023
1023
1023
1023
1022
1023
1022
1023
1023
1022
204
0
0
0
0
0
0
0
0
0
0
1022
1022
1023
1022
1023
1022
1023
1023
1022
0
0
0
0
0
0
0
0
496
1022
1023
1022
1022
1023
1023
1022
1023
1023
1023
1022
151
0
0
0
0
0
0
0
998
1023
1023
1023
1023
1023
1022
1023
1023
1022
1023
1022
247
0
0
0
0
0
0
0
0
449
471
1023
1023
1022
1022
1023
1022
1022
1022
1022
44
0
0
0
0
0
0
0
0
0
0
779
1023
1023
1022
1023
1023
1022
1022
1022
0
0
0
0
0
0
0
0
0
0
0
911
1023
1023
1022
1023
1022
1023
1023
1022
3
0
0
0
0
0
0
0
0
0
0
1022
1023
1023
1022
1023
1022
1023
1023
1022
185
0
0
0
0
0
0
0
0
0
0
445
1023
1023
1023
1023
1022
1022
1023
1022
0
0
0
0
0
0
0
0
0
312
380
1022
1023
1023
1022
1023
1023
1023
1023
1022
299
0
0
0
0
0
0
0
0
119
143
1022
1022
1022
1022
1023
1023
1022
1022
1022
360
0
0
0
0
0
0
0
0
0
0
0
346
1022
861
821
1022
1022
1023
1022
0
0
0
0
0
0
0
0
0
0
0
0
0
813
689
576
1022
1022
1022
1014
0
0
0
0
0
0
0
0
0
0
0
1022
1023
1023
1022
1023
1022
1023
1023
1022
561
0
0
0
0
0
0
0
0
599
471
1022
1022
1023
1022
1023
1023
1023
1023
1022
701
0
0
0
0
0
0
0
0
0
0
1022
1022
1023
1022
1023
1023
1022
1023
1022
587
0
0
0
0
0
0
0
0
0
0
695
1023
1023
1022
1022
1023
1023
1023
1022
546
0
0
0
0
0
0
0
0
0
0
0
456
1023
1022
881
1023
1022
1022
1022
143
0
0
0
0
0
0
0
1022
1022
1023
1022
1023
1023
1022
1022
1022
1023
1023
1022
1022
0
0
0
0
0
0
710
1023
1022
1023
1022
1022
1023
1022
1023
1023
1023
1023
1022
1022
0
0
0
0
0
0
0
0
0
0
770
1023
1022
1023
1023
1023
1022
1023
1022
500
0
0
0
0
0
0
0
0
0
0
0
0
0
0
0
555
626
611
770
0
0
0
0
0
0
0
0
0
0
0
0
0
418
462
158
1022
1002
970
981
55
0
0
0
0
0
0
315
1022
1022
1023
1023
1022
1022
1022
1023
1022
1022
1022
1022
1022
0
0
836
0
0
0
1022
1023
1022
1023
1023
1023
1023
1022
1023
1022
1023
1023
1022
1023
0
0
217
0
0
0
719
1023
1022
1023
1022
1023
1023
1022
1023
1023
1023
1023
1022
1022
0
0
0
0
0
0
0
0
439
208
1023
1023
1023
1022
1023
1022
1022
1023
1022
400
0
0
0
0
0
0
710
1022
1022
1023
1022
1023
1023
1022
1023
1023
1023
1023
1022
920
0
0
1021
0
0
0
1022
1022
1022
1023
1023
1022
1023
1022
1023
1023
1022
1023
1022
879
0
0
998
0
0
0
952
1022
1023
1023
1023
1022
1023
1022
1023
1022
1023
1023
1022
766
0
0
147
0
0
0
371
1022
1022
1023
1023
1023
1023
1022
1023
1022
1023
1023
1022
472
0
0
0
0
0
0
0
0
664
414
1022
1023
1023
1022
1023
1022
1023
1023
1022
163
0
0
277
0
0
0
83
1022
1022
1022
1023
1022
1023
1023
1023
1022
1023
1023
1022
378
0
0
0
0
0
0
0
671
1022
1023
1022
1023
1022
1022
1023
1022
1022
1023
1022
287
0
0
247
0
0
0
323
1022
1022
1023
1022
1023
1023
1022
1023
1022
1022
1022
1022
311
0
0
870
0
0
0
629
1022
1022
1023
1023
1023
1023
1022
1023
1022
1023
1023
1022
318
0
0
751
0
0
0
527
1023
1022
1023
1022
1023
1023
1022
1023
1022
1023
1023
1022
319
0
0
0
0
821
1022
1023
1023
1022
1023
1022
1023
1023
1022
1023
1022
1023
1023
1022
240
0
0
0
0
0
0
0
0
0
0
718
1023
1023
1023
1023
1022
1023
1023
955
0
0
0
0
0
0
0
0
0
191
75
1022
1023
1023
1022
1023
1022
1023
1023
1022
0
0
0
0
0
0
0
0
542
1022
1023
1023
1022
1022
1023
1023
1023
1023
1023
1022
225
0
0
0
0
0
0
0
0
759
723
1023
1023
1023
1023
1023
1023
1023
1023
1022
181
0
0
0
0
0
0
0
0
0
0
200
1023
1023
1022
1023
1022
1022
1006
837
0
0
0
0
0
0
0
0
0
0
0
0
831
1023
1022
1023
1022
1023
1022
957
0
0
0
0
0
0
0
0
0
0
0
141
1022
1023
1022
1023
1022
1023
1022
1022
182
0
0
0
0
0
0
0
0
0
0
693
1022
1023
1022
1023
1022
1022
1022
1022
332
0
0
0
0
0
0
0
0
0
0
1022
1023
1023
1022
1023
1023
1022
1022
1022
412
0
0
0
0
0
0
0
0
0
0
510
1023
1022
1022
1023
1022
1023
1023
1022
443
0
0
0
0
0
0
0
0
0
0
0
576
1023
1022
1022
1022
1022
1022
1022
171
0
0
0
0
0
0
0
0
0
0
0
332
1022
1022
1023
1023
1023
1023
1022
298
0
0
0
0
0
0
0
0
0
0
0
1022
1023
1022
1023
1022
1022
1022
1022
497
0
0
0
0
0
0
0
0
0
0
736
1022
1023
1022
1023
1022
1023
1023
1022
812
0
0
0
0
0
0
0
0
0
0
438
1022
1023
1022
1023
1022
1022
1022
1022
772
0
0
0
0
0
0
0
0
0
0
0
1022
1023
1022
1023
1022
1023
1023
1022
674
0
0
0
0
0
0
0
0
0
0
0
1022
1023
1022
1022
1022
1023
1023
1022
584
0
0
0
0
0
0
0
0
0
0
246
1023
1023
1022
1022
1023
1023
1023
1022
824
0
0
0
0
0
0
0
512
1022
1023
1023
1022
1022
1022
1023
1022
1023
1023
1022
1023
0
0
0
0
0
0
0
195
988
937
1022
1022
1022
1022
1023
1023
1023
1022
1022
1022
0
0
0
0
0
0
0
0
0
0
0
0
777
1022
721
1022
1022
1022
1022
509
0
0
0
0
0
0
0
0
0
0
0
1019
1023
1022
1023
1023
1023
1023
1022
595
0
0
0
0
0
0
0
633
1022
1023
1022
1022
1023
1022
1023
1022
1023
1023
1022
1023
0
0
0
0
0
0
0
862
1023
1023
1022
1023
1023
1022
1023
1022
1023
1023
1022
1022
0
0
78
0
0
0
515
1022
1022
1023
1023
1023
1022
1022
1023
1022
1023
1023
1022
1023
0
0
568
0
0
0
618
1023
1022
1023
1022
1023
1022
1022
1023
1023
1023
1023
1022
1022
0
0
998
329
0
0
819
1023
1022
1023
1023
1023
1023
1022
1023
1022
1023
1022
1022
1022
0
0
933
253
0
0
660
1023
1022
1023
1022
1023
1023
1023
1023
1023
1023
1023
1022
1022
0
0
700
26
0
0
448
1023
1022
1023
1022
1023
1023
1022
1023
1022
1023
1023
1022
799
0
0
762
107
0
0
479
1023
1022
1022
1022
1022
1023
1022
1022
1023
1023
1023
1022
657
0
0
0
0
0
0
0
681
1022
1023
1023
1023
1023
1022
1023
1022
1023
1022
1022
307
0
0
984
423
0
0
1014
1023
1022
1023
1022
1023
1022
1022
1022
1023
1023
1022
1022
695
0
0
891
310
0
0
632
1023
1022
1023
1023
1023
1023
1022
1023
1022
1023
1023
1022
567
0
0
517
0
0
0
276
1023
1022
1023
1022
1023
1023
1022
1023
1022
1023
1023
1022
429
0
0
566
8
0
0
280
1022
1022
1023
1023
1023
1023
1022
1023
1022
1023
1022
1022
332
0
0
724
185
0
0
620
1023
1023
1023
1022
1023
1023
1022
1023
1023
1023
1023
1022
267
0
0
772
295
0
0
930
1023
1022
1023
1022
1023
1022
1022
1022
1022
1023
1022
1022
568
0
0
354
0
0
0
0
1013
1022
1023
1023
1023
1023
1022
1023
1022
1022
1023
1022
205
0
0
510
34
0
0
362
1022
1022
1023
1022
1022
1023
1022
1023
1023
1023
1023
1022
219
0
0
537
78
0
0
458
1023
1022
1022
1022
1023
1023
1023
1023
1022
1023
1023
1022
201
0
0
569
139
0
0
532
1023
1022
1023
1022
1023
1023
1022
1022
1023
1023
1023
1022
204
0
0
544
139
0
0
533
1023
1022
1023
1023
1023
1023
1022
1022
1022
1023
1023
955
166
0
0
692
290
0
0
792
1022
1022
1023
1022
1022
1023
1022
1023
1023
1023
1023
1022
196
0
0
520
144
0
0
551
1023
1022
1022
1022
1022
1022
1022
1023
1023
1023
1022
1022
196
0
0
436
63
0
0
366
1022
1022
1023
1022
1022
1022
1022
1023
1023
1022
1023
1022
136
0
0
405
54
0
0
373
1023
1022
1023
1022
1023
1023
1022
1023
1022
1023
1023
1022
135
0
0
462
128
0
0
485
1022
1022
1023
1022
1023
1023
1022
1022
1022
1023
1023
1022
0
0
0
842
552
0
336
1022
1023
1022
1023
1022
1023
1022
1022
1023
1023
1023
1022
1022
290
0
0
457
139
0
0
458
1023
1022
1023
1023
1023
1023
1022
1023
1022
1022
1023
1022
159
0
0
345
64
0
0
476
1022
1022
1023
1022
1022
1022
1022
1022
1022
1023
1023
1022
182
0
0
309
78
0
0
559
1022
1022
1022
1022
1023
1023
1022
1022
1022
1022
1022
1022
167
0
0
362
118
0
0
393
1022
1022
1023
1022
1023
1023
1022
1023
1023
1023
1023
1022
166
0
0
273
84
0
0
401
1022
1022
1022
1022
1023
1023
1022
1023
1023
1023
1023
1022
227
0
0
336
139
0
0
328
1023
1022
1023
1022
1022
1023
1022
1023
1023
1023
1023
1022
241
0
0
299
106
0
0
234
1022
1022
1023
1022
1023
1023
1022
1023
1023
1023
1022
1022
233
0
0
304
123
0
0
268
1022
1022
1023
1022
1023
1023
1022
1022
1023
1023
1022
1022
229
0
0
333
182
0
0
382
1022
1022
1022
1023
1022
1023
1022
1023
1022
1023
1022
1022
265
0
0
0
0
0
0
281
1022
1023
1023
1022
1022
1023
1022
1023
1023
1023
1023
1022
283
0
0
352
221
0
0
364
1022
1022
1023
1022
1023
1023
1022
1022
1022
1023
1023
1022
293
0
0
320
223
0
0
383
1022
1022
1023
1022
1022
1023
1022
1023
1022
1022
1023
1022
300
0
0
291
213
0
0
273
1022
1022
1022
1022
1022
1022
1022
1023
1022
1022
1022
1022
334
0
0
257
171
0
0
173
1022
1022
1023
1022
1022
1023
1022
1023
1023
1022
1022
1022
302
0
0
288
398
0
0
363
1022
1022
1023
1023
1023
1023
1022
1023
1022
1022
1023
1022
334
0
0
303
270
0
0
316
1022
1022
1023
1022
1023
1023
1022
1023
1023
1023
1023
1022
356
0
0
283
268
0
0
254
1022
1022
1023
1022
1023
1023
1022
1023
1022
1023
1023
1022
358
0
0
221
199
0
0
235
1022
1022
1023
1022
1023
1022
1022
1023
1022
1023
1023
1022
359
0
0
195
182
0
0
269
1022
1022
1023
1023
1023
1023
1022
1022
1022
1023
1023
1022
352
0
0
235
194
0
0
693
1023
1023
1023
1023
1023
1023
1022
1023
1022
1023
1023
1022
364
0
0
249
323
0
0
401
1022
1022
1023
1023
1022
1023
1022
1023
1022
1023
1023
1022
387
0
0
219
263
0
0
225
1022
1022
1023
1022
1023
1023
1022
1023
1023
1023
1022
1022
380
0
0
173
238
0
0
199
1022
1022
1023
1022
1023
1023
1022
1022
1023
1023
1023
1022
414
0
0
195
273
0
0
137
1022
1022
1023
1022
1023
1022
1022
1022
1022
1023
1022
1022
395
0
0
245
330
0
0
403
1022
1022
1022
1022
1022
1023
1023
1022
1022
1023
1022
1022
439
0
0
246
359
0
0
303
1022
1022
1023
1023
1022
1022
1022
1023
1023
1023
1022
1022
455
0
0
230
351
0
0
263
1022
1022
1023
1023
1022
1023
1022
1023
1022
1023
1023
1022
447
0
0
178
308
0
0
238
1022
1022
1023
1022
1023
1023
1022
1022
1022
1023
1023
1022
443
0
0
155
312
0
0
182
1022
1022
1022
1022
1023
1023
1022
1023
1022
1023
1023
1022
476
0
0
162
340
0
0
0
874
1022
1023
1022
1023
1023
1022
1023
1023
1023
1023
1022
468
0
0
211
399
0
0
260
1022
1022
1023
1023
1023
1023
1022
1022
1022
1023
1023
1022
483
0
0
222
443
0
0
267
1022
1023
1022
1022
1022
1023
1023
1023
1023
1023
1023
1022
497
0
0
131
354
0
0
131
1022
1022
1022
1023
1023
1023
1022
1022
1022
1023
1023
1022
511
0
0
157
401
0
0
223
1022
1022
1023
1023
1023
1022
1022
1023
1023
1023
1022
1022
479
0
0
185
424
0
0
247
1022
1022
1023
1022
1023
1023
1022
1023
1023
1023
1023
1022
515
0
0
158
435
0
0
191
1022
1022
1023
1023
1022
1023
1022
1023
1023
1023
1023
1022
546
0
0
153
435
0
0
188
1022
1022
1022
1022
1023
1023
1022
1023
1022
1022
1023
1022
519
0
0
101
376
0
0
71
1017
1022
1022
1022
1023
1023
1022
1022
1022
1023
1023
1022
522
0
0
108
409
0
0
73
1018
1022
1022
1022
1023
1023
1022
1023
1023
1022
1023
1022
549
0
0
117
435
0
0
66
1017
1022
1022
1023
1023
1023
1022
1023
1022
1023
1023
1022
556
0
0
107
439
0
0
24
1007
1022
1023
1023
1023
1023
1022
1022
1023
1023
1022
1022
546
0
0
114
449
0
0
85
1020
1023
1022
1023
1023
1023
1022
1023
1022
1023
1023
1022
588
0
0
57
435
0
0
0
993
1022
1022
1022
1023
1023
1022
1022
1022
1023
1023
1022
560
0
0
108
488
0
0
136
1022
1022
1022
1022
1023
1023
1022
1023
1022
1023
1023
1022
557
0
0
116
487
0
0
134
1022
1022
1022
1022
1023
1023
1022
1023
1023
1023
1023
1022
570
0
0
112
513
0
0
164
1022
1022
1022
1022
1023
1022
1022
1023
1022
1023
1022
1022
568
0
0
80
531
0
0
124
1022
1022
1023
1022
1023
1023
1022
1022
1022
1023
1023
1022
873
0
0
0
165
0
0
0
619
1023
1022
1022
1023
1023
1022
1023
1023
1023
1022
1022
489
0
0
0
467
0
0
204
1022
1022
1023
1022
1023
1023
1022
1023
1022
1023
1023
1022
595
0
0
56
521
0
0
183
1022
1023
1023
1022
1023
1023
1022
1022
1022
1023
1023
1022
581
0
0
58
539
0
0
239
1022
1022
1022
1023
1023
1023
1022
1023
1022
1023
1023
1022
590
0
0
46
551
0
0
289
1022
1022
1022
1023
1023
1023
1022
1023
1023
1023
1023
1022
519
0
0
214
692
0
0
687
1023
1022
1023
1022
1023
1023
1022
1022
1022
1022
1023
1022
614
0
0
0
516
0
0
618
1023
1022
1023
1022
1022
1023
1022
1023
1022
1023
1023
1022
536
0
0
0
488
0
86
1016
1022
1022
1023
1022
1023
1023
1022
1022
1022
1023
1023
1022
591
0
0
0
431
0
0
229
1022
1022
1023
1022
1023
1023
1022
1022
1022
1023
1023
1022
480
0
0
0
485
0
143
1022
1022
1022
1023
1023
1023
1022
1022
1023
1022
1023
1023
1022
384
0
0
327
984
0
473
1023
1023
1022
1023
1022
1023
1023
1022
1023
1023
1023
1022
1022
664
0
0
0
527
0
0
0
950
1022
1022
1023
1023
1023
1023
1022
1023
1023
1023
1022
547
0
0
0
463
0
0
0
899
1022
1022
1023
1023
1023
1022
1023
1022
1023
1023
1022
556
0
0
0
557
0
0
0
959
1022
1023
1023
1023
1023
1022
1023
1023
1023
1023
1022
542
0
0
0
593
0
0
189
1022
1022
1023
1022
1023
1023
1022
1022
1023
1023
1023
1022
592
0
0
0
517
0
0
22
1001
1022
1023
1022
1023
1022
1022
1023
1023
1023
1023
1022
636
0
0
0
687
0
0
93
1020
1022
1023
1022
1023
1022
1022
1023
1022
1023
1023
1022
583
0
0
0
677
0
0
123
1022
1022
1022
1022
1023
1023
1022
1022
1022
1023
1023
1022
631
0
0
0
636
0
0
56
1012
1022
1022
1023
1023
1023
1023
1022
1022
1023
1023
1022
641
0
0
0
641
0
0
0
952
1022
1023
1023
1023
1023
1022
1022
1023
1023
1022
1022
599
0
0
0
503
0
0
0
970
1022
1022
1022
1023
1023
1022
1022
1023
1023
1023
1022
609
0
0
1
741
0
0
169
1022
1022
1023
1022
1023
1023
1022
1023
1022
1023
1023
1022
656
0
0
0
719
0
0
79
1018
1022
1023
1022
1022
1022
1022
1023
1023
1023
1023
1022
655
0
0
0
679
0
0
0
964
1022
1022
1022
1023
1023
1022
1023
1022
1023
1023
1022
635
0
0
0
690
0
0
0
964
1022
1022
1023
1023
1023
1022
1022
1023
1023
1023
1022
636
0
0
0
739
0
0
190
1022
1022
1022
1023
1023
1023
1023
1022
1023
1022
1023
1022
635
0
0
0
798
0
0
220
1022
1022
1023
1022
1023
1023
1022
1022
1023
1023
1023
1022
645
0
0
0
768
0
0
101
1020
1022
1022
1023
1023
1023
1022
1022
1022
1023
1023
1022
666
0
0
0
761
0
0
0
993
1022
1023
1022
1022
1023
1022
1022
1022
1023
1023
1022
671
0
0
0
724
0
0
0
917
1022
1022
1022
1023
1023
1022
1023
1023
1023
1022
1022
659
0
0
0
624
0
0
363
1022
1022
1022
1022
1023
1023
1022
1023
1023
1023
1023
1022
616
0
0
0
791
0
0
82
1018
1022
1023
1023
1023
1023
1022
1022
1023
1023
1022
1022
647
0
0
0
871
0
0
197
1022
1022
1022
1023
1022
1022
1022
1023
1023
1023
1023
1022
662
0
0
0
772
0
0
0
953
1022
1022
1023
1023
1023
1022
1022
1022
1023
1022
1022
651
0
0
0
779
0
0
0
978
1022
1023
1022
1023
1023
1023
1022
1023
1023
1023
1022
683
0
0
0
751
0
0
0
784
1022
1023
1023
1023
1023
1022
1023
1023
1023
1023
1022
679
0
0
0
810
0
0
0
873
1023
1022
1022
1022
1023
1022
1023
1023
1023
1023
1022
664
0
0
0
856
0
0
0
996
1023
1022
1023
1023
1023
1022
1023
1022
1022
1023
1022
667
0
0
0
814
0
0
0
944
1022
1023
1022
1022
1023
1022
1023
1023
1023
1023
1022
714
0
0
0
808
0
0
0
839
1022
1022
1023
1023
1023
1022
1023
1022
1022
1023
1022
720
0
0
0
732
0
0
0
437
1022
1022
1022
1023
1023
1022
1022
1023
1023
1023
1022
647
0
0
0
828
0
0
0
900
1022
1022
1023
1023
1022
1022
1023
1022
1022
1023
1022
730
0
0
0
827
0
0
0
784
1022
1023
1022
1022
1023
1022
1023
1023
1023
1023
1022
690
0
0
0
751
0
0
0
710
1022
1023
1023
1023
1023
1022
1022
1023
1023
1023
1023
735
0
0
0
713
0
0
0
624
1023
1022
1023
1022
1023
1022
1022
1023
1023
1023
1022
750
0
0
0
617
0
0
0
629
1022
1022
1022
1023
1023
1022
1022
1022
1023
1022
1022
718
0
0
0
793
0
0
0
772
1022
1023
1022
1023
1023
1022
1023
1022
1023
1023
1022
736
0
0
0
819
0
0
0
842
1022
1023
1022
1023
1023
1022
1023
1023
1023
1022
1022
806
0
0
0
700
0
0
0
671
1022
1023
1022
1022
1023
1022
1022
1023
1023
1022
1022
812
0
0
0
568
0
0
0
451
1022
1023
1023
1023
1023
1022
1023
1022
1023
1022
1022
740
0
0
0
642
0
0
0
664
1022
1022
1022
1023
1022
1022
1022
1023
1023
1023
1022
772
0
0
0
760
0
0
0
684
1022
1022
1023
1023
1023
1022
1023
1022
1022
1022
1022
783
0
0
0
784
0
0
0
745
1022
1022
1022
1022
1023
1022
1023
1022
1022
1023
1022
1014
0
0
0
625
0
0
0
425
1022
1022
1022
1023
1023
1022
1022
1023
1023
1022
1022
812
0
0
0
637
0
0
0
483
1022
1022
1022
1022
1023
1022
1022
1023
1023
1022
1022
852
0
0
0
573
0
0
0
435
1022
1022
1022
1023
1023
1022
1023
1022
1023
1023
1022
799
0
0
0
689
0
0
0
580
1023
1022
1023
1023
1023
1022
1023
1023
1022
1023
1022
833
0
0
0
760
0
0
0
771
1022
1023
1022
1022
1023
1022
1023
1022
1023
1023
1022
875
0
0
0
396
0
0
0
131
1022
1023
1023
1023
1023
1022
1023
1022
1023
1023
1022
750
0
0
0
652
0
0
0
619
1022
1022
1023
1023
1023
1022
1022
1023
1023
1023
1023
867
0
0
0
692
0
0
0
636
1022
1022
1023
1022
1023
1022
1023
1023
1023
1023
1022
876
0
0
0
717
0
0
0
637
1022
1023
1023
1023
1023
1022
1022
1023
1023
1023
1022
830
0
0
0
740
0
0
0
798
1022
1022
1022
1023
1022
1022
1023
1022
1022
1023
1022
615
0
0
47
1008
0
0
311
1022
1022
1023
1022
1023
1022
1022
1023
1023
1023
1023
1022
958
0
0
0
730
0
0
0
696
1022
1022
1022
1023
1022
1022
1023
1023
1023
1023
1022
864
0
0
0
646
0
0
0
607
1022
1023
1022
1022
1023
1022
1022
1022
1023
1022
1022
817
0
0
0
646
0
0
0
718
1022
1023
1022
1023
1022
1022
1023
1023
1023
1023
1022
843
0
0
0
714
0
0
0
800
1022
1022
1023
1023
1023
1022
1022
1022
1023
1023
1022
799
0
0
0
798
0
0
78
1019
1022
1022
1022
1023
1023
1022
1023
1022
1022
1022
1022
786
0
0
0
829
0
0
367
1023
1022
1023
1022
1023
1023
1022
1022
1023
1022
1023
1022
799
0
0
0
853
0
0
449
1022
1022
1023
1022
1022
1023
1022
1023
1022
1023
1022
1022
833
0
0
0
771
0
0
272
1022
1022
1023
1023
1023
1023
1022
1023
1022
1022
1023
1022
871
0
0
0
680
0
0
0
898
1022
1023
1022
1022
1023
1022
1022
1023
1023
1023
1022
860
0
0
0
463
0
0
0
647
1022
1022
1023
1023
1023
1022
1023
1022
1022
1022
1022
802
0
0
0
670
0
0
0
924
1022
1023
1022
1023
1023
1022
1023
1023
1023
1022
1022
827
0
0
0
737
0
0
245
1022
1022
1023
1023
1023
1023
1022
1022
1022
1023
1022
1022
865
0
0
0
716
0
0
56
1008
1022
1022
1022
1023
1022
1022
1023
1023
1023
1023
1022
889
0
0
0
628
0
0
0
853
1022
1022
1023
1023
1023
1022
1023
1023
1023
1023
1022
890
0
0
0
495
0
0
0
866
1022
1023
1023
1022
1023
1022
1022
1023
1023
1023
1022
861
0
0
0
562
0
0
119
1021
1022
1022
1022
1022
1023
1022
1023
1023
1023
1023
1022
833
0
0
0
616
0
0
157
1022
1022
1022
1023
1023
1023
1022
1023
1022
1023
1022
1022
852
0
0
0
675
0
0
291
1022
1022
1023
1023
1023
1023
1022
1023
1022
1023
1023
1022
902
0
0
0
617
0
0
79
1014
1022
1022
1022
1022
1022
1022
1023
1023
1023
1022
1022
936
0
0
0
508
0
0
0
844
1022
1022
1023
1023
1023
1022
1022
1023
1022
1022
1022
926
0
0
0
479
0
0
0
623
1022
1022
1022
1022
1023
1022
1022
1022
1023
1022
1022
953
0
0
0
439
0
0
0
571
1022
1022
1023
1023
1023
1022
1023
1023
1023
1023
1022
942
0
0
0
430
0
0
0
566
1022
1022
1022
1023
1022
1022
1022
1023
1023
1022
1022
949
0
0
0
471
0
0
0
729
1022
1023
1022
1023
1023
1022
1023
1023
1023
1022
1022
1015
0
0
0
471
0
0
160
1022
1022
1022
1022
1023
1023
1022
1023
1023
1023
1023
1022
1016
0
0
0
404
0
0
0
841
1022
1022
1022
1022
1023
1022
1023
1023
1023
1023
1022
927
0
0
0
373
0
0
291
1022
1023
1023
1023
1023
1023
1022
1022
1023
1023
1023
1022
918
0
0
0
494
0
0
676
1023
1022
1022
1023
1023
1023
1022
1022
1023
1022
1023
1022
954
0
0
0
402
0
0
730
1022
1022
1023
1022
1022
1023
1022
1023
1022
1023
1022
1022
947
0
0
0
345
0
0
0
952
1022
1022
1022
1022
1023
1022
1022
1022
1022
1023
1022
1022
0
0
0
393
0
0
0
523
1023
1022
1022
1023
1023
1022
1023
1023
1023
1023
1022
929
0
0
0
422
0
0
0
668
1022
1022
1023
1023
1023
1022
1023
1022
1022
1023
1022
915
0
0
0
464
0
0
0
756
1022
1022
1023
1023
1023
1022
1023
1022
1022
1023
1022
1020
0
0
0
514
0
0
0
739
1022
1023
1023
1023
1022
1022
1023
1022
1022
1023
1022
1022
0
0
0
416
0
0
0
308
1022
1022
1022
1022
1023
1022
1023
1022
1022
1023
1022
1022
0
0
0
383
0
0
0
431
1022
1022
1022
1023
1022
1022
1022
1022
1022
1023
1022
1021
0
0
0
476
0
0
0
651
1022
1022
1022
1022
1023
1022
1023
1023
1023
1023
1022
1022
0
0
0
475
0
0
0
676
1022
1023
1022
1023
1023
1022
1023
1022
1022
1023
1022
1022
0
0
0
497
0
0
0
677
1023
1023
1022
1023
1023
1022
1022
1023
1023
1023
1022
1022
0
0
0
448
0
0
0
546
1022
1022
1022
1022
1023
1022
1023
1022
1022
1022
1022
1022
0
0
0
432
0
0
0
538
1022
1022
1023
1022
1023
1022
1023
1022
1023
1023
1022
1022
0
0
0
423
0
0
0
562
1022
1022
1022
1022
1023
1022
1023
1022
1022
1023
1023
1022
0
0
0
412
0
0
0
536
1022
1022
1023
1023
1022
1022
1023
1022
1023
1023
1022
1022
0
0
0
458
0
0
0
606
1022
1023
1023
1023
1023
1022
1022
1023
1023
1023
1022
1022
0
0
0
421
0
0
0
572
1022
1023
1022
1023
1023
1022
1023
1023
1023
1023
1022
1022
0
0
0
382
0
0
0
495
1022
1023
1023
1023
1023
1022
1022
1022
1022
1023
1022
1022
0
0
0
358
0
0
0
398
1023
1023
1023
1023
1022
1022
1023
1023
1022
1023
1022
1023
40
0
0
243
0
0
0
182
1022
1023
1022
1022
1023
1022
1022
1023
1023
1023
1022
1022
0
0
0
373
0
0
0
533
1022
1022
1022
1022
1023
1022
1022
1022
1023
1023
1022
1022
1
0
0
429
0
0
0
564
1022
1022
1023
1022
1023
1022
1023
1022
1023
1023
1022
1022
8
0
0
367
0
0
0
575
1022
1023
1023
1023
1023
1022
1022
1023
1023
1023
1022
1022
8
0
0
323
0
0
0
411
1023
1022
1023
1023
1023
1022
1022
1022
1022
1022
1022
1009
89
0
0
356
0
0
0
375
1022
1022
1022
1023
1023
1022
1023
1022
1022
1023
1022
1022
7
0
0
332
0
0
0
415
1022
1023
1022
1023
1023
1022
1023
1022
1023
1023
1023
1022
15
0
0
357
0
0
0
492
1022
1022
1022
1022
1023
1022
1023
1023
1023
1023
1022
1022
60
0
0
351
0
0
0
478
1022
1022
1023
1023
1023
1022
1022
1022
1022
1023
1022
1022
81
0
0
259
0
0
0
333
1022
1022
1022
1022
1023
1022
1023
1022
1023
1023
1022
1022
0
0
0
698
148
0
17
1004
1022
1023
1023
1022
1023
1023
1023
1023
1022
1023
1022
1023
168
0
0
283
0
0
0
336
1022
1022
1022
1023
1023
1022
1023
1023
1022
1023
1022
1022
53
0
0
282
0
0
0
390
1022
1022
1023
1022
1023
1022
1023
1023
1023
1023
1022
1022
41
0
0
351
0
0
0
567
1022
1023
1023
1023
1023
1022
1022
1023
1023
1023
1022
1022
113
0
0
312
0
0
0
468
1022
1022
1022
1022
1023
1022
1022
1023
1023
1023
1022
1022
138
0
0
191
0
0
0
306
1022
1022
1022
1022
1023
1022
1023
1023
1023
1023
1022
1022
111
0
0
243
0
0
0
343
1022
1022
1022
1022
1023
1022
1023
1023
1022
1023
1022
1022
107
0
0
290
0
0
0
449
1022
1023
1022
1022
1022
1022
1022
1022
1022
1023
1022
1022
171
0
0
281
0
0
0
396
1022
1023
1022
1022
1023
1022
1023
1022
1023
1023
1022
1022
187
0
0
249
0
0
0
387
1022
1022
1022
1022
1022
1022
1023
1022
1023
1023
1022
1022
168
0
0
0
0
0
0
263
1022
1022
1023
1022
1023
1022
1023
1022
1023
1022
1022
1022
172
0
0
272
0
0
0
427
1022
1022
1022
1023
1023
1022
1023
1023
1022
1023
1022
1022
185
0
0
326
12
0
0
530
1022
1023
1022
1022
1023
1022
1022
1023
1022
1023
1022
1022
207
0
0
335
51
0
0
513
1022
1023
1022
1022
1023
1022
1022
1022
1023
1023
1022
1023
236
0
0
240
0
0
0
271
1022
1022
1022
1022
1022
1023
1022
1022
1023
1023
1022
1022
222
0
0
234
104
0
0
357
1022
1022
1022
1022
1022
1022
1023
1022
1023
1023
1022
1022
230
0
0
271
24
0
0
420
1022
1023
1022
1023
1022
1022
1022
1022
1023
1023
1022
1022
248
0
0
220
0
0
0
338
1022
1022
1022
1023
1023
1022
1023
1023
1023
1023
1022
1022
257
0
0
186
2
0
0
324
1022
1022
1023
1022
1023
1022
1023
1023
1022
1022
1022
1022
277
0
0
199
17
0
0
327
1022
1022
1022
1022
1023
1022
1023
1023
1022
1022
1022
1023
297
0
0
221
21
0
0
575
1022
1023
1022
1022
1023
1023
1022
1022
1022
1023
1022
1022
285
0
0
200
49
0
0
378
1022
1022
1022
1023
1023
1022
1023
1023
1023
1023
1022
1022
333
0
0
202
70
0
0
324
1022
1022
1022
1023
1023
1022
1022
1023
1023
1023
1022
1022
315
0
0
206
91
0
0
375
1022
1023
1023
1022
1022
1022
1023
1022
1023
1023
1023
1022
319
0
0
221
134
0
0
402
1022
1023
1022
1022
1023
1022
1023
1023
1022
1023
1022
1022
364
0
0
142
60
0
0
536
1022
1022
1022
1022
1023
1022
1023
1023
1022
1022
1022
1022
392
0
0
86
38
0
0
147
1022
1022
1022
1022
1023
1022
1023
1022
1023
1022
1022
1023
343
0
0
86
31
0
0
226
1022
1022
1022
1023
1023
1022
1022
1022
1022
1023
1022
1022
347
0
0
124
101
0
0
332
1022
1023
1022
1023
1023
1022
1022
1023
1023
1023
1022
1022
389
0
0
148
153
0
0
368
1022
1022
1022
1023
1023
1022
1022
1022
1023
1023
1022
1023
400
0
0
165
166
0
0
5
1002
1023
1022
1022
1023
1022
1022
1023
1022
1023
1022
1022
409
0
0
144
184
0
0
331
1022
1022
1022
1022
1022
1022
1023
1022
1022
1023
1022
1022
452
0
0
126
183
0
0
304
1022
1022
1022
1022
1022
1023
1022
1022
1022
1023
1022
1022
401
0
0
137
219
0
0
350
1022
1023
1022
1023
1023
1022
1023
1022
1023
1023
1023
1022
455
0
0
122
207
0
0
304
1022
1023
1022
1022
1023
1022
1023
1023
1023
1023
1022
1023
503
0
0
95
211
0
0
191
1022
1022
1023
1022
1023
1023
1023
1023
1023
1023
1022
1022
486
0
0
123
245
0
0
300
1022
1023
1022
1022
1023
1022
1023
1022
1022
1023
1022
1023
467
0
0
120
269
0
0
443
1022
1023
1022
1022
1022
1022
1023
1023
1022
1022
1022
1022
484
0
0
114
317
0
0
384
1022
1022
1023
1023
1023
1022
1022
1023
1023
1023
1022
1022
511
0
0
119
309
0
0
315
1022
1023
1022
1023
1022
1022
1023
1023
1023
1023
1022
1022
499
0
0
108
300
0
0
330
1022
1022
1022
1022
1022
1022
1023
1023
1022
1023
1022
1022
508
0
0
94
335
0
0
440
1022
1023
1022
1022
1022
1022
1022
1023
1022
1023
1022
1022
546
0
0
93
344
0
0
366
1022
1023
1023
1022
1023
1022
1022
1022
1022
1023
1022
1023
570
0
0
87
365
0
0
336
1022
1023
1022
1022
1022
1022
1023
1023
1022
1023
1022
1023
548
0
0
88
375
0
0
375
1022
1022
1022
1023
1022
1023
1022
1022
1022
1023
1022
1022
574
0
0
28
368
0
0
275
1022
1022
1022
1023
1022
1022
1022
1023
1023
1023
1022
1022
566
0
0
57
390
0
0
187
1022
1023
1023
1022
1023
1022
1022
1022
1022
1023
1022
1023
569
0
0
12
389
0
0
162
1022
1023
1023
1023
1023
1022
1023
1023
1022
1023
1022
1022
810
0
0
0
212
0
0
0
760
1022
1022
1022
1023
1022
1023
1022
1022
1023
1023
1022
540
0
0
42
462
0
0
228
1022
1022
1022
1022
1023
1022
1023
1023
1022
1023
1022
1023
629
0
0
73
479
0
0
67
1018
1022
1023
1023
1023
1022
1022
1023
1022
1023
1022
1022
615
0
0
47
491
0
0
192
1022
1022
1023
1023
1023
1022
1023
1022
1023
1023
1022
1023
623
0
0
15
527
0
0
128
1022
1022
1023
1023
1023
1022
1022
1023
1023
1023
1022
1022
583
0
0
237
741
0
0
435
1022
1023
1022
1022
1022
1022
1023
1023
1022
1023
1022
1022
659
0
0
57
538
0
0
204
1022
1023
1022
1022
1023
1022
1023
1022
1022
1023
1023
1023
642
0
0
0
524
0
0
128
1022
1023
1022
1022
1023
1022
1023
1023
1022
1023
1022
1023
641
0
0
0
493
0
0
103
1021
1022
1023
1023
1022
1022
1023
1023
1023
1023
1022
1023
596
0
0
0
540
0
0
344
1022
1023
1023
1023
1023
1022
1023
1023
1022
1022
1022
1022
356
0
0
415
1021
0
49
1008
1022
1022
1023
1023
1023
1022
1022
1023
1022
1022
1022
1023
774
0
0
0
559
0
0
99
1019
1023
1022
1022
1022
1022
1023
1023
1022
1023
1022
1022
615
0
0
0
526
0
0
45
1007
1023
1022
1022
1023
1022
1022
1022
1023
1023
1022
1023
623
0
0
0
566
0
0
56
1011
1023
1022
1022
1023
1022
1023
1022
1022
1023
1022
1023
658
0
0
0
569
0
0
2
996
1022
1023
1023
1022
1022
1022
1022
1023
1023
1022
1022
647
0
0
0
507
0
0
0
967
1022
1023
1023
1023
1022
1022
1023
1023
1023
1022
1022
642
0
0
0
652
0
0
199
1022
1023
1022
1023
1022
1022
1022
1023
1023
1023
1022
1023
703
0
0
0
663
0
0
44
1010
1022
1022
1022
1023
1022
1023
1023
1023
1022
1022
1023
694
0
0
0
625
0
0
0
977
1023
1022
1022
1023
1023
1023
1023
1022
1023
1022
1023
678
0
0
0
608
0
0
0
967
1023
1022
1023
1023
1022
1023
1023
1023
1023
1022
1023
665
0
0
0
380
0
0
0
958
1022
1023
1023
1023
1022
1023
1022
1022
1023
1023
1023
691
0
0
0
679
0
0
67
1017
1022
1022
1023
1022
1022
1023
1023
1023
1022
1022
1022
662
0
0
0
740
0
0
180
1022
1022
1022
1022
1022
1022
1023
1022
1023
1022
1022
1022
724
0
0
0
688
0
0
0
988
1022
1023
1022
1022
1022
1023
1022
1022
1023
1022
1023
728
0
0
0
636
0
0
0
863
1022
1023
1022
1022
1022
1023
1022
1022
1022
1022
1022
658
0
0
0
664
0
0
96
1021
1022
1023
1022
1023
1022
1023
1023
1022
1022
1022
1023
679
0
0
0
765
0
0
88
1020
1023
1022
1022
1023
1022
1022
1022
1022
1023
1022
1023
708
0
0
0
777
0
0
101
1021
1023
1023
1022
1023
1022
1023
1023
1023
1023
1022
1022
758
0
0
0
716
0
0
0
883
1022
1023
1022
1023
1022
1022
1023
1023
1022
1022
1023
713
0
0
0
715
0
0
0
903
1023
1023
1022
1022
1022
1022
1022
1023
1023
1022
1022
719
0
0
0
685
0
0
464
1022
1022
1022
1022
1023
1022
1023
1022
1022
1023
1022
1022
712
0
0
0
775
0
0
0
968
1022
1022
1022
1023
1022
1022
1023
1023
1022
1022
1022
727
0
0
0
777
0
0
0
939
1022
1023
1023
1023
1022
1023
1022
1023
1022
1022
1022
704
0
0
0
779
0
0
0
941
1022
1022
1023
1023
1022
1023
1023
1023
1022
1022
1022
751
0
0
0
724
0
0
0
912
1023
1022
1022
1022
1022
1022
1022
1023
1023
1022
1022
731
0
0
0
754
0
0
0
877
1023
1023
1022
1023
1022
1023
1023
1022
1023
1022
1022
710
0
0
0
801
0
0
0
998
1023
1022
1022
1023
1022
1022
1022
1022
1022
1022
1023
751
0
0
0
824
0
0
105
1021
1023
1022
1023
1023
1022
1022
1022
1023
1023
1022
1022
777
0
0
0
784
0
0
0
926
1023
1022
1023
1023
1022
1022
1022
1023
1023
1022
1022
758
0
0
0
787
0
0
0
878
1022
1022
1022
1023
1022
1022
1023
1023
1023
1022
1022
750
0
0
0
781
0
0
0
547
1022
1023
1023
1023
1023
1023
1022
1022
1023
1022
1022
758
0
0
0
780
0
0
36
1012
1023
1023
1022
1023
1022
1023
1022
1022
1022
1022
1023
768
0
0
0
804
0
0
0
986
1023
1022
1022
1023
1022
1023
1023
1022
1022
1022
1023
739
0
0
0
774
0
0
0
939
1022
1023
1022
1022
1022
1023
1022
1023
1022
1022
1023
794
0
0
0
789
0
0
0
931
1022
1022
1022
1023
1023
1022
1022
1022
1023
1023
1023
782
0
0
0
769
0
0
0
906
1022
1023
1022
1023
1022
1022
1022
1023
1023
1022
1023
763
0
0
0
770
0
0
0
887
1023
1023
1022
1023
1023
1023
1022
1022
1023
1022
1023
742
0
0
0
802
0
0
186
1022
1023
1022
1022
1023
1022
1022
1023
1022
1023
1022
1022
790
0
0
0
787
0
0
4
997
1022
1022
1022
1023
1022
1023
1022
1022
1023
1022
1023
772
0
0
0
731
0
0
0
847
1023
1022
1022
1022
1022
1022
1023
1023
1023
1022
1023
787
0
0
0
686
0
0
0
835
1022
1023
1023
1023
1022
1022
1023
1022
1023
1022
1023
760
0
0
0
648
0
0
0
840
1022
1023
1023
1023
1022
1023
1023
1023
1023
1022
1023
751
0
0
0
757
0
0
46
1011
1022
1022
1023
1023
1022
1023
1023
1022
1023
1022
1022
902
0
0
0
725
0
0
0
912
1023
1022
1022
1023
1023
1022
1023
1022
1023
1022
1023
809
0
0
0
733
0
0
28
1007
1023
1023
1022
1023
1022
1023
1022
1022
1023
1022
1023
802
0
0
0
709
0
0
92
1020
1022
1022
1022
1022
1022
1023
1023
1023
1022
1022
1022
782
0
0
0
686
0
0
268
1022
1022
1022
1022
1022
1022
1022
1023
1022
1023
1023
1023
715
0
0
0
692
0
191
1022
1022
1022
1022
1022
1022
1022
1022
1022
1023
1022
1022
1022
879
0
0
0
500
0
0
0
340
1022
1023
1023
1023
1022
1023
1023
1022
1023
1022
1022
588
0
0
0
600
0
0
950
1022
1022
1022
1022
1023
1022
1023
1023
1022
1022
1022
1022
813
0
0
0
683
0
0
582
1022
1023
1022
1022
1023
1023
1023
1022
1022
1022
1022
1023
804
0
0
0
612
0
0
0
749
1023
1023
1023
1022
1022
1023
1023
1023
1023
1022
1022
747
0
0
0
671
0
0
0
939
1022
1023
1023
1022
1022
1023
1022
1023
1023
1022
1022
486
0
0
0
918
0
0
723
1022
1022
1023
1023
1023
1022
1023
1023
1023
1022
1022
1022
893
0
0
0
741
0
0
60
1007
1023
1023
1023
1023
1022
1023
1023
1022
1022
1022
1023
901
0
0
0
506
0
0
0
513
1022
1023
1022
1023
1022
1023
1023
1022
1022
1022
1023
719
0
0
0
663
0
0
0
803
1023
1023
1022
1023
1022
1022
1022
1022
1023
1022
1023
796
0
0
0
712
0
0
0
968
1022
1022
1022
1023
1022
1022
1022
1022
1022
1022
1022
839
0
0
0
819
0
0
293
1022
1022
1022
1023
1023
1022
1023
1023
1022
1023
1022
1022
846
0
0
0
729
0
0
0
980
1023
1022
1022
1023
1022
1023
1022
1022
1022
1022
1023
812
0
0
0
725
0
0
94
1019
1023
1022
1023
1023
1022
1023
1022
1022
1023
1022
1023
839
0
0
0
701
0
0
0
934
1022
1022
1022
1023
1022
1023
1022
1022
1023
1022
1022
822
0
0
0
677
0
0
0
889
1022
1022
1022
1023
1022
1023
1022
1022
1023
1022
1022
807
0
0
0
545
0
0
0
963
1022
1022
1022
1022
1022
1023
1022
1023
1023
1022
1023
840
0
0
0
723
0
0
83
1018
1022
1022
1023
1023
1023
1022
1023
1023
1023
1023
1022
847
0
0
0
692
0
0
0
937
1023
1022
1023
1023
1022
1023
1023
1023
1022
1022
1022
877
0
0
0
663
0
0
0
844
1023
1023
1022
1023
1022
1023
1023
1022
1023
1022
1023
865
0
0
0
612
0
0
0
756
1022
1022
1022
1023
1022
1023
1023
1022
1023
1022
1022
820
0
0
0
504
0
0
0
813
1022
1022
1022
1023
1022
1022
1023
1023
1022
1022
1022
799
0
0
0
728
0
0
16
1000
1023
1022
1023
1022
1022
1023
1022
1022
1023
1022
1022
907
0
0
0
675
0
0
0
826
1023
1023
1022
1023
1022
1022
1022
1022
1022
1022
1022
915
0
0
0
592
0
0
0
652
1022
1023
1023
1023
1022
1023
1023
1023
1023
1023
1022
868
0
0
0
575
0
0
0
624
1023
1023
1022
1023
1023
1023
1022
1022
1022
1022
1023
858
0
0
0
639
0
0
0
883
1022
1022
1022
1022
1022
1022
1023
1022
1023
1022
1022
856
0
0
0
711
0
0
0
988
1022
1022
1022
1023
1023
1023
1023
1022
1022
1022
1022
884
0
0
0
704
0
0
0
948
1023
1023
1022
1022
1023
1023
1022
1023
1023
1022
1022
898
0
0
0
703
0
0
0
931
1022
1022
1023
1023
1022
1023
1023
1022
1022
1022
1022
919
0
0
0
629
0
0
0
789
1023
1023
1022
1023
1022
1023
1022
1023
1022
1022
1022
902
0
0
0
587
0
0
140
1022
1022
1023
1022
1023
1022
1023
1022
1022
1023
1023
1023
879
0
0
0
588
0
0
0
789
1022
1022
1022
1023
1022
1023
1022
1022
1022
1022
1023
856
0
0
0
646
0
0
0
837
1023
1022
1022
1023
1022
1023
1022
1023
1023
1022
1023
860
0
0
0
659
0
0
0
966
1022
1022
1022
1023
1023
1022
1022
1022
1022
1022
1023
889
0
0
0
686
0
0
0
943
1022
1022
1022
1022
1022
1022
1022
1022
1023
1023
1023
922
0
0
0
637
0
0
0
720
1023
1023
1022
1022
1022
1022
1023
1022
1023
1022
1022
942
0
0
0
634
0
0
0
872
1022
1022
1022
1023
1022
1023
1022
1022
1023
1022
1023
900
0
0
0
633
0
0
0
892
1023
1023
1022
1023
1022
1022
1023
1022
1023
1023
1022
841
0
0
0
683
0
0
76
1016
1023
1023
1022
1023
1022
1023
1022
1022
1022
1022
1023
899
0
0
0
701
0
0
193
1022
1023
1022
1023
1022
1022
1022
1023
1022
1022
1022
1022
919
0
0
0
688
0
0
0
790
1023
1022
1022
1023
1023
1022
1022
1023
1022
1022
1022
924
0
0
0
643
0
0
0
932
1023
1022
1022
1023
1022
1023
1023
1023
1022
1022
1022
925
0
0
0
641
0
0
0
906
1023
1022
1022
1023
1022
1022
1022
1022
1023
1022
1023
907
0
0
0
600
0
0
0
898
1023
1023
1022
1022
1022
1023
1023
1022
1022
1023
1023
905
0
0
0
636
0
0
0
959
1022
1022
1022
1022
1022
1022
1023
1022
1022
1023
1023
905
0
0
0
665
0
0
79
1015
1023
1022
1022
1022
1023
1023
1022
1023
1022
1022
1022
957
0
0
0
609
0
0
0
903
1023
1022
1022
1023
1022
1022
1023
1023
1022
1022
1023
929
0
0
0
587
0
0
0
934
1023
1022
1023
1023
1023
1023
1022
1023
1023
1022
1022
1019
0
0
0
575
0
0
0
805
1022
1022
1022
1023
1023
1023
1023
1022
1022
1023
1023
935
0
0
0
586
0
0
0
871
1022
1022
1022
1023
1023
1023
1023
1022
1023
1022
1022
954
0
0
0
591
0
0
0
875
1022
1022
1023
1022
1023
1023
1022
1022
1022
1023
1023
974
0
0
0
582
0
0
0
801
1023
1023
1022
1022
1022
1023
1023
1023
1022
1022
1022
964
0
0
0
573
0
0
0
848
1022
1022
1022
1023
1022
1022
1022
1023
1023
1022
1023
1023
0
0
0
527
0
0
0
671
1022
1023
1022
1023
1022
1023
1022
1023
1023
1022
1022
909
0
0
0
546
0
0
0
840
1022
1023
1022
1023
1022
1023
1022
1022
1023
1022
1022
1021
0
0
0
566
0
0
0
866
1023
1022
1022
1023
1022
1022
1023
1022
1023
1022
1023
1018
0
0
0
554
0
0
0
871
1023
1023
1023
1023
1022
1022
1022
1023
1023
1023
1023
952
0
0
0
579
0
0
135
1022
1023
1022
1023
1022
1022
1022
1023
1023
1023
1022
1023
920
0
0
0
516
0
0
0
617
1022
1022
1023
1023
1023
1022
1023
1022
1023
1023
1022
932
0
0
0
535
0
0
0
917
1023
1023
1022
1023
1022
1023
1022
1022
1023
1022
1022
1022
0
0
0
545
0
0
0
844
1022
1022
1022
1023
1022
1023
1023
1022
1023
1022
1023
1021
0
0
0
524
0
0
0
750
1023
1022
1022
1023
1022
1023
1023
1022
1023
1022
1023
1021
0
0
0
539
0
0
0
796
1022
1022
1022
1023
1022
1023
1022
1022
1023
1023
1023
936
0
0
0
824
40
0
515
1022
1023
1022
1022
1023
1022
1023
1022
1022
1023
1022
1023
1022
0
0
0
490
0
0
0
664
1023
1022
1023
1022
1022
1022
1022
1022
1022
1023
1022
995
0
0
0
473
0
0
0
673
1023
1022
1022
1022
1023
1023
1023
1022
1023
1022
1023
1021
0
0
0
499
0
0
0
739
1023
1022
1022
1023
1022
1022
1023
1022
1023
1022
1023
1021
0
0
0
468
0
0
0
699
1023
1022
1022
1023
1022
1023
1022
1022
1023
1022
1022
1021
0
0
0
401
0
0
0
614
1022
1022
1023
1022
1023
1022
1022
1023
1022
1022
1023
1021
0
0
0
504
0
0
0
720
1023
1023
1023
1023
1022
1023
1023
1023
1022
1022
1023
1022
0
0
0
497
0
0
0
769
1023
1023
1023
1022
1023
1022
1023
1022
1023
1022
1023
1022
0
0
0
530
0
0
0
846
1022
1023
1022
1022
1023
1023
1022
1022
1023
1022
1023
1022
0
0
0
496
0
0
0
730
1022
1022
1022
1023
1022
1022
1022
1022
1023
1022
1023
1022
0
0
0
198
0
0
0
702
1022
1022
1022
1022
1023
1023
1022
1023
1022
1022
1022
1022
0
0
0
476
0
0
0
760
1022
1023
1023
1022
1023
1022
1023
1023
1023
1022
1022
1022
0
0
0
494
0
0
0
788
1022
1022
1022
1023
1022
1023
1022
1022
1023
1022
1022
1022
0
0
0
506
0
0
0
876
1022
1022
1022
1022
1022
1022
1023
1022
1022
1022
1023
1022
0
0
0
483
0
0
0
741
1022
1022
1022
1023
1022
1023
1022
1023
1023
1022
1023
1022
0
0
0
457
0
0
0
781
1023
1023
1022
1023
1022
1023
1022
1022
1023
1023
1022
1022
0
0
0
462
0
0
0
872
1023
1022
1022
1023
1023
1023
1023
1022
1023
1022
1022
1022
0
0
0
464
0
0
0
764
1022
1022
1022
1023
1022
1023
1023
1022
1023
1022
1023
1022
0
0
0
503
0
0
0
889
1023
1022
1023
1022
1023
1023
1023
1023
1022
1023
1022
1022
0
0
0
460
0
0
0
773
1022
1022
1022
1023
1022
1022
1023
1022
1022
1022
1022
1022
1
0
0
434
0
0
169
1022
1023
1022
1022
1023
1022
1023
1023
1022
1023
1022
1022
1022
2
0
0
449
0
0
0
796
1022
1023
1022
1023
1022
1023
1022
1022
1023
1023
1023
1022
1
0
0
459
0
0
0
782
1022
1022
1022
1022
1022
1023
1022
1023
1023
1022
1023
1022
0
0
0
448
0
0
0
828
1023
1023
1022
1022
1022
1022
1022
1022
1022
1023
1022
1022
30
0
0
439
7
0
0
746
1022
1023
1022
1022
1022
1022
1022
1022
1022
1022
1022
1022
56
0
0
426
0
0
0
816
1023
1022
1022
1022
1022
1022
1023
1023
1023
1022
1022
1022
7
0
0
431
24
0
0
818
1022
1022
1022
1023
1023
1022
1023
1022
1023
1022
1022
1022
44
0
0
469
73
0
0
902
1023
1023
1022
1023
1023
1022
1022
1022
1023
1022
1023
1022
65
0
0
446
84
0
0
881
1023
1022
1022
1022
1022
1022
1022
1023
1023
1023
1022
1022
58
0
0
451
68
0
0
837
1023
1023
1022
1023
1022
1023
1022
1023
1022
1023
1023
1022
67
0
0
427
82
0
0
499
1023
1022
1022
1023
1022
1022
1022
1023
1022
1022
1022
1022
101
0
0
438
117
0
0
834
1022
1022
1022
1023
1022
1022
1022
1022
1023
1022
1023
1022
87
0
0
446
124
0
0
981
1022
1022
1022
1023
1023
1023
1022
1022
1022
1023
1022
1022
94
0
0
419
113
0
0
873
1023
1023
1022
1023
1022
1022
1022
1022
1023
1022
1023
1022
104
0
0
416
157
0
0
873
1023
1022
1022
1023
1022
1023
1022
1022
1023
1022
1023
1022
153
0
0
410
149
0
0
769
1023
1022
1022
1022
1022
1023
1022
1022
1023
1023
1023
1022
129
0
0
405
134
0
0
808
1022
1022
1022
1022
1022
1022
1023
1023
1022
1022
1022
1022
119
0
0
399
182
0
0
894
1022
1023
1022
1023
1022
1022
1022
1023
1022
1023
1023
1022
118
0
0
404
216
0
0
904
1023
1022
1022
1023
1022
1023
1023
1022
1023
1023
1022
1022
166
0
0
417
216
0
0
876
1022
1022
1022
1023
1022
1022
1023
1022
1023
1022
1022
1022
155
0
0
401
230
0
0
913
1023
1022
1023
1022
1022
1023
1023
1022
1023
1023
1022
1022
154
0
0
380
232
0
0
935
1023
1022
1023
1022
1023
1022
1023
1022
1023
1022
1022
1022
217
0
0
400
268
0
0
883
1023
1023
1023
1023
1022
1023
1022
1023
1022
1022
1022
1023
229
0
0
358
225
0
0
790
1023
1022
1023
1022
1023
1022
1022
1023
1022
1023
1023
1022
187
0
0
365
265
0
0
907
1023
1022
1022
1023
1022
1022
1023
1022
1023
1022
1023
1022
235
0
0
352
263
0
0
897
1023
1023
1022
1023
1022
1023
1022
1022
1023
1022
1022
1022
247
0
0
332
247
0
0
813
1022
1022
1022
1022
1022
1022
1023
1022
1022
1023
1023
1022
235
0
0
339
279
0
0
888
1022
1023
1022
1022
1023
1022
1023
1022
1022
1023
1022
1022
447
0
0
243
181
0
0
511
1022
1023
1023
1022
1023
1023
1023
1022
1023
1022
1022
1022
230
0
0
320
331
0
0
815
1022
1023
1023
1023
1022
1023
1023
1022
1023
1022
1023
1022
290
0
0
338
337
0
0
796
1023
1022
1022
1023
1023
1022
1023
1022
1023
1022
1022
1022
323
0
0
318
327
0
0
766
1023
1022
1022
1023
1023
1023
1023
1023
1023
1022
1023
1022
336
0
0
280
324
0
0
638
1023
1023
1022
1023
1022
1022
1023
1022
1023
1023
1023
856
278
0
0
448
503
0
85
1014
1023
1023
1023
1023
1023
1022
1022
1022
1022
1023
1023
1022
364
0
0
331
409
0
0
841
1023
1023
1023
1023
1023
1022
1023
1023
1022
1023
1022
1022
365
0
0
276
383
0
0
704
1022
1023
1023
1023
1023
1022
1023
1023
1023
1023
1022
1022
350
0
0
240
348
0
0
611
1022
1022
1022
1023
1023
1023
1023
1022
1023
1022
1023
1022
361
0
0
248
419
0
0
585
1023
1022
1022
1023
1022
1022
1023
1022
1023
1022
1023
1022
85
0
0
530
758
0
478
1023
1023
1022
1023
1023
1022
1022
1023
1023
1022
1022
1023
1022
517
0
0
323
478
0
0
775
1023
1022
1023
1022
1022
1022
1023
1022
1022
1023
1023
1022
377
0
0
219
430
0
0
710
1022
1023
1023
1022
1022
1023
1023
1023
1023
1022
1022
1022
428
0
0
203
441
0
0
743
1022
1022
1022
1023
1022
1022
1023
1022
1023
1023
1023
1022
441
0
0
241
484
0
0
728
1023
1023
1022
1023
1022
1023
1023
1022
1023
1023
1023
1022
422
0
0
102
383
0
0
713
1022
1022
1022
1023
1022
1022
1023
1022
1023
1023
1023
1022
431
0
0
234
515
0
0
972
1022
1022
1022
1023
1023
1022
1022
1022
1023
1023
1022
1022
463
0
0
214
524
0
177
1022
1022
1022
1023
1023
1023
1022
1022
1023
1022
1023
1023
1022
429
0
0
169
486
0
373
1022
1022
1023
1023
1022
1023
1023
1023
1022
1023
1022
1023
1022
406
0
0
148
492
0
852
1023
1022
1022
1022
1022
1023
1023
1022
1022
1023
1023
1023
1022
540
0
0
0
465
0
210
1022
1023
1023
1022
1023
1022
1022
1022
1023
1023
1023
1023
1022
426
0
0
55
444
0
709
1022
1023
1022
1022
1023
1023
1023
1022
1022
1023
1022
1022
1022
407
0
0
64
486
0
773
1023
1023
1022
1022
1022
1023
1023
1023
1023
1023
1023
1022
1022
463
0
0
92
516
0
0
657
1022
1022
1022
1022
1022
1022
1022
1023
1022
1022
1022
1023
446
0
0
98
555
0
0
707
1023
1022
1023
1022
1023
1022
1022
1023
1022
1023
1023
1022
485
0
0
108
587
0
0
770
1023
1023
1022
1023
1023
1023
1023
1022
1023
1023
1023
1022
523
0
0
9
527
0
0
405
1023
1023
1022
1023
1022
1022
1023
1022
1023
1023
1023
1022
530
0
0
71
578
0
0
415
1022
1022
1022
1023
1023
1022
1022
1022
1022
1023
1022
1022
523
0
0
88
623
0
0
499
1023
1022
1022
1023
1023
1023
1023
1022
1023
1022
1022
1022
531
0
0
143
706
0
0
619
1022
1022
1022
1022
1022
1022
1022
1023
1023
1022
1022
1022
541
0
0
153
675
0
143
1022
1022
1023
1023
1022
1022
1022
1022
1022
1022
1023
1023
1023
584
0
0
76
677
0
0
419
1022
1023
1022
1023
1022
1023
1023
1022
1023
1023
1023
1022
515
0
0
79
698
0
0
677
1022
1022
1022
1022
1023
1022
1023
1022
1023
1023
1022
1022
539
0
0
104
764
0
0
671
1022
1022
1023
1023
1023
1022
1022
1023
1023
1023
1023
1023
585
0
0
155
838
0
0
766
1023
1022
1023
1022
1022
1023
1023
1023
1023
1023
1022
1022
579
0
0
106
799
0
0
490
1022
1022
1022
1022
1022
1023
1022
1022
1023
1022
1022
1022
588
0
0
77
787
0
0
528
1023
1023
1022
1023
1023
1022
1023
1023
1022
1023
1023
1022
618
0
0
1
766
0
0
372
1022
1022
1022
1023
1022
1023
1023
1022
1023
1022
1023
1023
585
0
0
2
798
0
0
400
1022
1022
1022
1023
1022
1022
1023
1022
1023
1023
1023
1022
584
0
0
30
836
0
0
473
1022
1023
1022
1022
1023
1022
1022
1022
1022
1023
1023
1023
620
0
0
70
886
0
0
0
935
1022
1023
1023
1023
1022
1023
1023
1023
1022
1023
1022
647
0
0
19
863
0
0
370
1022
1022
1022
1022
1022
1022
1023
1022
1022
1022
1023
1022
639
0
0
0
879
0
0
399
1022
1022
1023
1022
1023
1023
1023
1022
1022
1022
1023
1022
600
0
0
0
850
0
0
412
1023
1023
1022
1023
1022
1022
1022
1022
1023
1023
1023
1022
636
0
0
0
903
0
0
379
1022
1022
1022
1023
1022
1022
1022
1022
1023
1022
1022
1022
627
0
0
0
913
0
0
453
1023
1022
1023
1023
1023
1022
1023
1023
1022
1022
1023
1023
656
0
0
0
906
0
0
320
1022
1022
1022
1023
1023
1023
1022
1023
1022
1022
1023
1023
674
0
0
0
879
0
0
262
1022
1022
1022
1023
1022
1023
1023
1022
1023
1023
1023
1023
627
0
0
0
872
0
0
413
1022
1022
1022
1023
1022
1022
1023
1023
1023
1023
1022
1022
679
0
0
0
898
0
0
384
1023
1023
1022
1023
1023
1022
1023
1022
1023
1023
1023
1023
692
0
0
0
892
0
0
301
1022
1022
1022
1023
1023
1023
1023
1022
1023
1022
1022
1022
660
0
0
0
892
0
0
344
1022
1022
1023
1022
1023
1022
1022
1023
1022
1023
1022
1023
706
0
0
0
863
0
0
285
1022
1022
1022
1023
1023
1022
1022
1023
1022
1022
1022
1022
806
0
0
0
832
0
0
146
1022
1022
1022
1022
1023
1023
1023
1023
1022
1023
1023
1023
673
0
0
0
864
0
0
255
1022
1022
1022
1022
1022
1022
1022
1023
1022
1022
1022
1023
710
0
0
0
873
0
0
294
1022
1023
1022
1022
1023
1023
1022
1022
1022
1022
1023
1023
722
0
0
0
849
0
0
214
1022
1023
1022
1022
1023
1022
1023
1022
1023
1023
1022
1023
745
0
0
0
846
0
0
179
1022
1022
1022
1023
1023
1023
1022
1022
1022
1023
1022
1022
944
0
0
0
675
0
0
0
553
1022
1022
1022
1023
1022
1023
1023
1022
1022
1022
1022
639
0
0
0
813
0
0
159
1022
1022
1023
1022
1022
1023
1022
1023
1022
1023
1023
1023
765
0
0
0
852
0
0
195
1022
1022
1023
1023
1023
1023
1023
1023
1022
1022
1022
1023
746
0
0
0
854
0
0
255
1022
1023
1022
1023
1023
1022
1022
1022
1023
1023
1023
1023
788
0
0
0
826
0
0
125
1022
1022
1023
1022
1022
1023
1023
1022
1022
1022
1023
1022
617
0
0
0
934
0
0
361
1022
1023
1023
1022
1022
1023
1022
1023
1023
1023
1023
1022
799
0
0
0
773
0
0
103
1020
1022
1022
1022
1023
1023
1023
1022
1023
1022
1023
1023
736
0
0
0
777
0
0
36
1000
1022
1022
1022
1023
1022
1022
1023
1022
1023
1023
1022
748
0
0
0
796
0
0
200
1022
1022
1023
1022
1022
1023
1023
1023
1023
1023
1023
1022
819
0
0
0
757
0
0
68
1011
1023
1022
1023
1023
1022
1023
1022
1023
1023
1023
1023
788
0
0
0
896
0
0
435
1023
1022
1022
1022
1023
1023
1022
1022
1022
1023
1023
1023
876
0
0
0
726
0
0
0
850
1022
1023
1023
1023
1022
1023
1023
1022
1023
1023
1023
780
0
0
0
704
0
0
0
908
1022
1023
1022
1023
1022
1023
1023
1022
1022
1023
1022
768
0
0
0
744
0
0
0
970
1022
1023
1023
1023
1022
1022
1023
1022
1023
1022
1023
785
0
0
0
744
0
0
0
988
1022
1022
1022
1023
1023
1023
1022
1022
1023
1022
1022
828
0
0
0
575
0
0
0
885
1023
1022
1022
1022
1022
1023
1022
1022
1023
1023
1023
832
0
0
0
704
0
0
0
855
1023
1022
1022
1023
1022
1022
1022
1022
1023
1022
1022
812
0
0
0
740
0
0
0
976
1023
1023
1023
1023
1022
1022
1023
1022
1023
1023
1023
812
0
0
0
732
0
0
94
1019
1022
1022
1022
1023
1023
1023
1023
1022
1022
1022
1022
812
0
0
0
753
0
0
236
1022
1023
1022
1023
1023
1023
1022
1022
1022
1023
1023
1023
826
0
0
0
607
0
0
179
1022
1023
1022
1022
1023
1022
1023
1022
1022
1023
1022
1023
845
0
0
0
707
0
0
154
1022
1022
1022
1023
1023
1023
1023
1022
1022
1023
1022
1023
830
0
0
0
695
0
0
252
1022
1022
1022
1022
1023
1022
1023
1022
1022
1023
1023
1023
819
0
0
0
713
0
0
119
1021
1023
1022
1022
1023
1022
1023
1022
1022
1023
1023
1023
806
0
0
0
709
0
0
163
1022
1023
1022
1022
1022
1023
1023
1023
1022
1023
1022
1022
832
0
0
0
718
0
0
431
1022
1022
1023
1022
1023
1023
1022
1022
1022
1023
1023
1023
853
0
0
0
676
0
0
180
1022
1022
1023
1022
1023
1022
1022
1022
1022
1022
1023
1023
856
0
0
0
667
0
0
177
1022
1023
1022
1022
1023
1022
1023
1022
1022
1023
1023
1022
828
0
0
0
684
0
0
290
1022
1022
1022
1022
1023
1022
1022
1022
1023
1022
1022
1022
851
0
0
0
679
0
0
283
1022
1022
1022
1023
1022
1022
1022
1023
1023
1023
1023
1023
846
0
0
0
686
0
0
647
1023
1022
1022
1022
1023
1023
1023
1022
1022
1022
1022
1022
879
0
0
0
641
0
0
274
1022
1022
1023
1022
1023
1022
1022
1022
1022
1023
1023
1023
854
0
0
0
613
0
0
146
1022
1022
1022
1022
1023
1023
1023
1022
1023
1023
1023
1022
870
0
0
0
624
0
0
92
1015
1023
1022
1023
1023
1022
1023
1022
1022
1022
1023
1023
869
0
0
0
658
0
0
282
1022
1022
1022
1022
1023
1022
1023
1022
1022
1022
1022
1022
919
0
0
0
644
0
0
97
1017
1023
1022
1023
1023
1023
1022
1022
1022
1023
1023
1023
900
0
0
0
615
0
0
167
1022
1023
1022
1023
1023
1022
1022
1022
1023
1023
1023
1023
896
0
0
0
621
0
0
88
1014
1022
1023
1022
1022
1023
1023
1023
1022
1023
1022
1022
901
0
0
0
606
0
0
398
1022
1023
1022
1022
1022
1023
1023
1022
1022
1023
1023
1022
924
0
0
0
620
0
0
257
1022
1022
1023
1023
1023
1022
1023
1022
1022
1023
1023
1023
906
0
0
0
624
0
0
0
747
1022
1022
1022
1023
1022
1023
1023
1022
1022
1022
1022
936
0
0
0
625
0
0
320
1022
1023
1023
1022
1023
1023
1022
1022
1022
1023
1022
1023
1006
0
0
0
591
0
0
198
1022
1022
1023
1022
1023
1022
1022
1023
1022
1023
1022
1023
913
0
0
0
581
0
0
159
1022
1022
1022
1023
1023
1023
1023
1023
1022
1023
1022
1022
998
0
0
0
591
0
0
202
1022
1023
1022
1022
1023
1022
1023
1023
1022
1023
1022
1023
971
0
0
0
584
0
0
252
1022
1022
1022
1022
1023
1023
1023
1022
1022
1022
1023
1023
987
0
0
0
564
0
0
197
1022
1023
1022
1022
1023
1023
1022
1022
1022
1023
1022
1023
1014
0
0
0
562
0
0
212
1022
1023
1022
1023
1023
1022
1023
1023
1022
1022
1023
1022
1022
0
0
0
530
7
0
109
1018
1022
1023
1022
1023
1022
1022
1022
1022
1022
1023
1022
1012
0
0
0
533
0
0
251
1022
1022
1023
1022
1023
1022
1023
1023
1022
1023
1022
1023
1016
0
0
0
513
0
0
156
1022
1022
1022
1022
1023
1022
1023
1022
1022
1022
1022
1023
1021
0
0
0
532
0
0
319
1022
1023
1023
1023
1023
1022
1022
1022
1022
1023
1023
1023
1021
0
0
0
517
1
0
275
1022
1023
1022
1022
1023
1023
1023
1023
1023
1023
1023
1022
1022
0
0
0
459
0
0
221
1022
1023
1022
1022
1023
1023
1023
1022
1022
1023
1023
1023
1019
0
0
0
475
19
0
416
1022
1023
1023
1023
1023
1023
1023
1023
1022
1022
1023
1023
1022
0
0
0
480
7
0
296
1022
1022
1022
1022
1023
1022
1023
1023
1022
1023
1022
1023
1021
0
0
0
437
15
0
179
1022
1023
1022
1022
1023
1022
1022
1022
1022
1023
1023
1023
1022
0
0
0
468
63
0
277
1022
1023
1022
1022
1023
1022
1022
1022
1022
1023
1023
1023
1001
283
0
0
349
0
0
0
647
1022
1022
1023
1023
1023
1023
1023
1022
1023
1023
1022
911
0
0
0
425
114
0
262
1022
1022
1022
1023
1023
1022
1023
1022
1023
1023
1022
1022
1022
37
0
0
449
127
0
355
1022
1022
1022
1023
1023
1023
1022
1023
1022
1023
1022
1023
1022
43
0
0
478
194
0
343
1022
1022
1022
1022
1023
1022
1023
1022
1022
1022
1023
1022
1022
60
0
0
468
231
0
475
1023
1022
1022
1022
1023
1022
1023
1023
1022
1023
1022
1023
934
24
0
0
649
433
0
713
1022
1023
1022
1022
1023
1022
1022
1022
1022
1023
1023
1023
1022
135
0
0
412
176
0
284
1022
1022
1023
1023
1023
1022
1022
1023
1022
1022
1022
1022
1022
87
0
0
385
200
0
224
1022
1022
1022
1022
1023
1022
1022
1022
1022
1023
1023
1022
1022
101
0
0
386
237
0
239
1022
1022
1023
1022
1023
1022
1023
1023
1022
1023
1023
1023
1022
116
0
0
402
271
0
326
1022
1023
1023
1022
1023
1022
1022
1022
1022
1023
1023
1023
1022
88
0
0
393
312
0
420
1022
1022
1022
1022
1023
1022
1023
1023
1022
1022
1022
1023
1022
216
0
0
364
291
0
69
999
1023
1022
1022
1023
1023
1023
1022
1022
1023
1022
1023
1022
171
0
0
360
309
0
267
1022
1023
1023
1022
1023
1022
1023
1022
1023
1023
1023
1022
1022
194
0
0
372
340
0
267
1022
1022
1023
1022
1023
1023
1022
1022
1023
1023
1022
1022
1022
213
0
0
355
364
0
153
1022
1022
1022
1023
1023
1023
1023
1023
1022
1022
1023
1023
1022
250
0
0
195
280
0
0
927
1023
1022
1023
1023
1022
1022
1023
1022
1023
1023
1023
1022
263
0
0
365
388
0
0
967
1023
1022
1022
1023
1023
1023
1023
1023
1023
1023
1023
1022
274
0
0
342
439
0
22
984
1023
1023
1022
1023
1023
1023
1022
1022
1023
1023
1023
1022
310
0
0
330
427
0
0
935
1023
1023
1022
1023
1022
1022
1023
1023
1023
1023
1022
1022
348
0
0
316
443
0
0
836
1022
1023
1022
1023
1023
1023
1023
1022
1023
1023
1022
1022
328
0
0
339
553
0
7
979
1023
1022
1022
1023
1023
1023
1023
1022
1023
1022
1022
1022
352
0
0
316
487
0
0
921
1022
1023
1022
1023
1022
1022
1023
1022
1023
1023
1023
1022
388
0
0
312
536
0
0
890
1022
1022
1022
1023
1022
1023
1023
1022
1023
1023
1023
1022
407
0
0
293
516
0
0
887
1023
1022
1022
1022
1023
1023
1022
1022
1023
1023
1023
1022
399
0
0
304
560
0
0
921
1023
1023
1022
1023
1023
1022
1023
1022
1022
1023
1022
1022
432
0
0
283
554
0
0
936
1022
1022
1023
1023
1022
1023
1023
1022
1023
1023
1022
1022
433
0
0
274
596
0
0
850
1023
1022
1022
1023
1023
1022
1023
1022
1023
1023
1022
1022
413
0
0
285
627
0
0
939
1023
1023
1022
1023
1022
1022
1023
1022
1023
1023
1023
1022
483
0
0
263
622
0
51
993
1023
1023
1022
1023
1023
1023
1023
1022
1023
1023
1023
1022
466
0
0
272
671
0
0
892
1022
1023
1022
1023
1022
1022
1023
1023
1023
1023
1023
1022
459
0
0
241
555
0
0
948
1022
1023
1022
1023
1022
1022
1023
1022
1023
1023
1023
1022
482
0
0
242
692
0
0
828
1022
1022
1023
1023
1022
1023
1023
1023
1023
1023
1023
1022
497
0
0
214
693
0
0
787
1023
1022
1022
1023
1023
1022
1023
1022
1023
1022
1023
1022
472
0
0
222
732
0
0
796
1022
1022
1022
1022
1022
1023
1022
1022
1022
1022
1022
1022
480
0
0
157
699
0
0
844
1022
1023
1022
1023
1022
1023
1023
1022
1023
1023
1022
1022
504
0
0
208
782
0
0
649
1022
1022
1022
1022
1023
1023
1023
1022
1023
1023
1023
1022
508
0
0
202
778
0
0
805
1023
1023
1023
1023
1022
1023
1023
1022
1023
1023
1022
1022
486
0
0
179
805
0
0
806
1023
1023
1022
1023
1022
1022
1023
1022
1022
1023
1022
1022
516
0
0
167
816
0
0
788
1022
1022
1022
1023
1023
1022
1023
1022
1023
1023
1022
1022
558
0
0
145
821
0
0
679
1022
1023
1022
1023
1022
1023
1023
1022
1023
1023
1023
1023
514
0
0
145
836
0
0
319
1022
1023
1022
1023
1023
1023
1023
1022
1023
1022
1023
1023
560
0
0
131
878
0
0
728
1023
1023
1022
1023
1023
1023
1023
1022
1023
1023
1023
1023
542
0
0
137
912
0
0
819
1023
1022
1023
1023
1023
1023
1023
1022
1023
1022
1023
1022
541
0
0
132
891
0
0
720
1022
1022
1022
1023
1022
1022
1023
1022
1023
1023
1022
1022
559
0
0
100
899
0
0
841
1023
1023
1022
1023
1022
1023
1023
1022
1023
1023
1022
1022
587
0
0
59
907
0
0
659
1023
1023
1022
1023
1022
1023
1023
1022
1023
1022
1023
1022
599
0
0
46
896
0
0
614
1022
1023
1022
1023
1022
1023
1023
1022
1023
1023
1023
1023
580
0
0
7
902
0
0
633
1023
1023
1022
1023
1022
1022
1022
1023
1023
1023
1022
1022
600
0
0
0
911
0
0
625
1022
1022
1022
1023
1023
1022
1023
1022
1023
1022
1022
1023
620
0
0
52
963
0
0
612
1022
1023
1022
1023
1022
1023
1023
1023
1023
1023
1023
1022
591
0
0
46
960
0
0
716
1023
1023
1022
1023
1022
1022
1023
1022
1023
1023
1022
1022
628
0
0
0
944
0
0
672
1023
1022
1022
1023
1023
1023
1023
1022
1023
1023
1023
1023
636
0
0
0
929
0
0
735
1022
1023
1022
1023
1022
1023
1023
1022
1023
1022
1023
1023
764
0
0
0
883
0
0
524
1023
1022
1023
1023
1023
1023
1023
1022
1023
1022
1022
1022
589
0
0
0
917
0
0
904
1022
1022
1022
1023
1023
1023
1023
1022
1022
1022
1022
1023
625
0
0
0
924
0
177
1022
1022
1023
1022
1023
1022
1022
1023
1022
1023
1022
1023
1023
611
0
0
0
870
0
344
1023
1022
1023
1022
1023
1022
1022
1023
1022
1023
1022
1023
1023
580
0
0
0
864
0
659
1022
1023
1023
1022
1023
1022
1023
1023
1022
1023
1023
1023
1022
604
0
0
0
699
0
0
902
1022
1022
1023
1023
1023
1023
1023
1022
1023
1022
1022
1022
461
0
0
0
796
0
686
1023
1023
1023
1022
1023
1022
1023
1022
1022
1023
1023
1023
1023
657
0
0
0
844
0
0
601
1023
1023
1022
1023
1022
1023
1023
1022
1023
1023
1023
1022
621
0
0
0
857
0
0
670
1022
1022
1023
1023
1023
1023
1023
1023
1023
1023
1022
1022
635
0
0
0
896
0
0
687
1023
1023
1022
1023
1023
1022
1023
1023
1023
1023
1023
1023
367
0
0
245
1022
0
109
1016
1022
1023
1022
1023
1023
1023
1023
1022
1023
1022
1023
1023
662
0
0
38
960
0
0
861
1022
1023
1022
1023
1023
1023
1023
1022
1023
1022
1023
1023
655
0
0
41
961
0
0
824
1023
1023
1023
1022
1022
1023
1023
1022
1023
1022
1023
1022
609
0
0
0
936
0
0
802
1022
1022
1022
1023
1022
1022
1022
1022
1023
1023
1022
1022
609
0
0
0
935
0
0
849
1022
1022
1022
1023
1022
1023
1023
1022
1023
1023
1022
1022
607
0
0
0
935
0
32
979
1023
1023
1022
1023
1022
1023
1023
1022
1023
1022
1023
1023
701
0
0
4
946
0
0
836
1022
1023
1022
1023
1023
1022
1023
1022
1023
1022
1023
1023
711
0
0
0
893
0
0
694
1023
1023
1022
1023
1023
1023
1023
1022
1023
1022
1023
1023
691
0
0
0
842
0
0
603
1022
1023
1022
1023
1023
1023
1023
1022
1022
1023
1023
1023
648
0
0
0
866
0
0
705
1023
1022
1022
1023
1022
1022
1022
1022
1023
1022
1023
1023
648
0
0
0
745
0
0
745
1023
1022
1023
1023
1023
1023
1022
1022
1023
1023
1023
1022
692
0
0
0
916
0
0
814
1023
1023
1022
1023
1023
1022
1023
1022
1023
1022
1023
1023
728
0
0
0
893
0
0
799
1023
1023
1022
1023
1022
1022
1022
1022
1023
1023
1023
1023
699
0
0
0
888
0
0
853
1023
1022
1022
1023
1023
1023
1023
1022
1023
1022
1023
1023
687
0
0
0
892
0
0
797
1023
1023
1022
1022
1023
1023
1023
1023
1023
1023
1022
1023
684
0
0
0
892
0
0
886
1023
1023
1022
1023
1022
1022
1022
1023
1023
1023
1022
1022
717
0
0
0
886
0
0
788
1023
1022
1023
1023
1022
1022
1022
1023
1023
1023
1022
1023
713
0
0
0
885
0
0
809
1023
1023
1022
1023
1023
1023
1023
1022
1023
1022
1023
1023
721
0
0
0
867
0
0
828
1023
1023
1022
1023
1022
1023
1023
1022
1023
1023
1023
1023
731
0
0
0
868
0
0
754
1023
1023
1022
1023
1022
1023
1023
1022
1023
1022
1022
1023
720
0
0
0
865
0
0
934
1023
1023
1022
1023
1022
1023
1023
1022
1023
1022
1023
1023
750
0
0
0
849
0
0
764
1022
1023
1023
1023
1022
1022
1023
1022
1023
1023
1022
1023
762
0
0
0
839
0
0
747
1023
1023
1022
1023
1023
1022
1022
1022
1023
1023
1022
1022
795
0
0
0
810
0
0
627
1022
1023
1022
1023
1023
1023
1023
1022
1023
1022
1023
1023
799
0
0
0
762
0
0
518
1023
1023
1022
1023
1022
1022
1023
1022
1023
1022
1023
1023
813
0
0
0
745
0
0
532
1023
1023
1022
1023
1023
1023
1023
1022
1022
1022
1023
1022
792
0
0
0
768
0
0
543
1023
1023
1023
1023
1022
1022
1022
1022
1023
1022
1022
1023
762
0
0
0
774
0
0
614
1022
1022
1023
1023
1022
1022
1022
1022
1023
1022
1023
1022
777
0
0
0
809
0
0
734
1023
1023
1022
1023
1022
1022
1023
1022
1023
1023
1023
1022
806
0
0
0
788
0
0
752
1023
1023
1022
1023
1022
1023
1023
1022
1023
1022
1023
1023
842
0
0
0
760
0
0
385
1023
1023
1022
1023
1023
1023
1023
1022
1023
1022
1023
1023
840
0
0
0
759
0
0
729
1023
1023
1022
1023
1022
1023
1023
1022
1023
1022
1022
1023
831
0
0
0
767
7
0
661
1023
1023
1022
1023
1022
1023
1023
1023
1023
1022
1022
1023
817
0
0
0
775
58
0
696
1023
1023
1022
1022
1022
1022
1023
1022
1023
1022
1022
1022
844
0
0
0
775
56
0
721
1023
1023
1022
1023
1022
1023
1022
1023
1023
1022
1023
1023
870
0
0
0
735
56
0
627
1022
1023
1022
1023
1023
1023
1023
1022
1023
1022
1023
1023
909
0
0
0
694
42
0
508
1023
1023
1022
1023
1022
1022
1023
1022
1023
1022
1023
1023
932
0
0
0
632
0
0
324
1022
1022
1023
1023
1022
1023
1023
1022
1023
1023
1023
1023
914
0
0
0
583
0
0
243
1022
1023
1023
1022
1022
1023
1023
1023
1023
1023
1023
1022
921
0
0
0
591
12
0
282
1022
1022
1022
1023
1023
1022
1023
1022
1023
1022
1022
1022
893
0
0
0
612
62
0
340
1023
1023
1023
1023
1022
1022
1022
1022
1023
1023
1023
1023
916
0
0
0
646
128
0
514
1023
1023
1022
1023
1023
1023
1023
1022
1023
1023
1023
1023
920
0
0
0
669
214
0
615
1023
1023
1022
1023
1022
1022
1023
1022
1023
1023
1023
1023
1021
0
0
0
641
183
0
508
1023
1023
1022
1023
1023
1023
1023
1022
1023
1023
1023
1023
955
0
0
0
665
239
0
570
1022
1023
1022
1023
1023
1022
1022
1022
1023
1022
1023
1023
1021
0
0
0
610
210
0
587
1022
1022
1022
1023
1023
1023
1023
1022
1023
1022
1023
1022
949
0
0
0
582
215
0
381
1022
1023
1023
1023
1022
1022
1023
1022
1023
1022
1023
1023
1008
0
0
0
572
190
0
314
1022
1023
1022
1023
1023
1023
1023
1022
1023
1022
1022
1023
1022
49
0
0
536
173
0
161
1022
1023
1022
1023
1023
1023
1023
1022
1023
1023
1023
1023
1021
7
0
0
499
172
0
139
1021
1022
1022
1023
1022
1022
1023
1022
1023
1023
1023
1023
1022
64
0
0
439
122
0
0
860
1023
1022
1023
1022
1022
1023
1023
1023
1023
1023
1023
1017
3
0
0
500
216
0
287
1022
1023
1022
1023
1022
1023
1023
1022
1023
1023
1023
1022
940
0
0
0
594
345
0
710
1023
1023
1022
1023
1022
1023
1022
1022
1023
1022
1022
1022
890
318
0
0
558
280
0
344
1022
1023
1022
1023
1022
1023
1023
1022
1023
1022
1023
1023
889
0
0
0
587
418
0
617
1023
1023
1022
1023
1022
1022
1023
1022
1023
1022
1023
1023
1022
90
0
0
569
393
0
563
1023
1023
1022
1023
1023
1023
1023
1022
1023
1022
1023
1023
1022
94
0
0
517
359
0
614
1022
1023
1023
1023
1022
1022
1023
1022
1023
1022
1023
1023
1017
62
0
0
492
366
0
799
1023
1022
1023
1023
1022
1022
1023
1022
1023
1022
1023
1023
963
0
0
0
729
652
710
1023
1023
1022
1023
1023
1022
1022
1022
1022
1023
1022
1023
1022
1022
184
0
0
494
372
0
547
1023
1023
1022
1023
1023
1023
1023
1022
1023
1023
1023
1023
895
24
0
0
440
448
524
1022
1023
1023
1022
1023
1022
1023
1023
1022
1023
1022
1023
1023
1022
125
0
0
482
482
211
1022
1023
1023
1022
1023
1022
1023
1023
1022
1023
1022
1023
1023
1022
160
0
0
420
435
0
376
1023
1023
1022
1023
1023
1023
1023
1022
1023
1022
1023
1023
1022
242
0
0
266
327
0
0
918
1023
1022
1023
1022
1023
1023
1022
1023
1022
1022
1023
1022
276
0
0
227
249
0
0
663
1023
1022
1023
1022
1023
1023
1022
1023
1023
1023
1022
1022
285
0
0
189
245
0
0
634
1023
1022
1023
1022
1023
1023
1022
1023
1022
1023
1023
1022
302
0
0
255
384
0
0
838
1023
1022
1023
1023
1023
1023
1022
1023
1022
1023
1023
1022
317
0
0
336
485
0
0
971
1022
1023
1023
1022
1023
1023
1023
1023
1022
1023
1022
1022
340
0
0
102
349
0
0
964
1022
1022
1023
1022
1022
1022
1022
1023
1022
1022
1022
1022
448
0
0
275
490
0
0
785
1022
1022
1023
1022
1022
1023
1022
1023
1023
1023
1023
1022
395
0
0
272
510
0
0
853
1022
1022
1023
1022
1023
1023
1022
1023
1022
1023
1023
1022
338
0
0
329
598
0
59
999
1023
1022
1023
1022
1023
1023
1022
1023
1022
1023
1023
1022
356
0
0
408
742
0
377
1022
1023
1022
1023
1022
1022
1023
1022
1023
1022
1023
1023
1022
399
0
0
432
897
0
525
1022
1022
1022
1023
1023
1023
1023
1022
1023
1022
1022
1022
1022
419
0
0
419
785
0
415
1022
1022
1022
1023
1022
1022
1023
1022
1023
1023
1023
1023
1022
424
0
0
382
783
0
353
1022
1022
1022
1023
1022
1022
1023
1022
1023
1023
1022
1022
1022
427
0
0
316
760
0
241
1022
1022
1022
1023
1022
1023
1023
1022
1023
1023
1023
1023
1022
430
0
0
326
927
0
269
1022
1022
1022
1023
1022
1023
1023
1022
1023
1022
1023
1023
1022
425
0
0
327
812
0
346
1023
1023
1022
1023
1022
1022
1022
1023
1023
1022
1023
1022
1022
421
0
0
305
835
0
262
1022
1022
1022
1023
1022
1022
1022
1022
1023
1022
1023
1023
1022
425
0
0
319
888
0
347
1022
1023
1022
1023
1022
1022
1023
1022
1023
1023
1023
1023
1022
406
0
0
357
992
0
457
1022
1022
1022
1023
1022
1022
1023
1023
1023
1022
1023
1023
1022
421
0
0
345
1015
0
524
1022
1023
1022
1022
1022
1023
1023
1022
1023
1023
1023
1023
1022
478
0
0
324
822
0
190
1022
1023
1022
1023
1022
1023
1023
1022
1023
1022
1023
1023
1022
466
0
0
302
1019
0
277
1022
1023
1022
1023
1022
1023
1023
1022
1023
1023
1023
1023
1022
408
0
0
345
1022
0
441
1022
1022
1023
1023
1022
1022
1023
1023
1023
1022
1023
1023
1022
423
0
0
397
1022
0
652
1023
1023
1022
1023
1022
1023
1023
1023
1023
1023
1022
1022
1022
481
0
0
423
1022
0
621
1023
1023
1022
1023
1022
1022
1023
1022
1023
1023
1023
1023
1022
491
0
0
318
1022
0
122
1015
1023
1022
1023
1022
1023
1023
1022
1023
1023
1023
1023
1022
487
0
0
278
1022
0
339
1022
1023
1022
1023
1023
1023
1023
1022
1023
1022
1023
1023
1022
461
0
0
303
1022
0
398
1023
1023
1022
1023
1022
1023
1023
1022
1023
1023
1023
1023
1022
384
0
0
333
1022
0
602
1022
1023
1022
1023
1022
1022
1023
1022
1023
1023
1022
1022
1022
438
0
0
373
1022
0
634
1023
1023
1022
1023
1022
1023
1023
1022
1023
1022
1023
1023
1022
464
0
0
334
1022
0
772
1022
1023
1022
1023
1022
1023
1023
1023
1023
1022
1022
1022
1022
488
0
0
325
1022
0
591
1023
1023
1022
1023
1022
1023
1023
1022
1023
1022
1023
1023
1022
511
0
0
295
1022
0
459
1022
1023
1022
1023
1022
1023
1022
1022
1023
1022
1023
1023
1022
475
0
0
248
1022
0
399
1022
1023
1022
1023
1022
1023
1023
1022
1023
1022
1023
1023
1022
464
0
0
251
1022
0
373
1022
1023
1023
1023
1023
1023
1023
1022
1023
1022
1022
1022
1022
435
0
0
303
1022
0
532
1022
1022
1022
1023
1022
1022
1022
1022
1023
1023
1022
1022
1022
480
0
0
300
1022
0
571
1022
1022
1022
1023
1022
1023
1022
1022
1023
1023
1023
1023
1022
545
0
0
283
1022
0
443
1022
1023
1022
1023
1022
1022
1023
1022
1023
1023
1023
1023
1022
534
0
0
219
1022
0
416
1022
1023
1022
1023
1023
1023
1023
1022
1023
1022
1023
1023
1022
517
0
0
211
1022
0
392
1023
1023
1022
1022
1022
1023
1023
1022
1023
1022
1023
1023
1022
500
0
0
219
1022
0
416
1022
1023
1022
1022
1023
1023
1023
1022
1023
1023
1022
1022
1022
468
0
0
223
1022
0
468
1022
1023
1022
1023
1022
1022
1022
1022
1023
1023
1023
1023
1022
478
0
0
232
1022
0
540
1023
1023
1022
1023
1023
1023
1023
1022
1023
1022
1023
1023
1022
726
0
0
240
1022
0
445
1023
1023
1022
1023
1022
1023
1023
1022
1023
1023
1023
1023
1022
532
0
0
255
1022
0
494
1022
1023
1022
1022
1023
1023
1023
1022
1023
1022
1023
1023
1022
570
0
0
199
1022
0
399
1022
1023
1022
1023
1022
1022
1023
1022
1022
1023
1023
1023
1022
522
0
0
163
1017
0
530
1023
1023
1022
1023
1022
1023
1023
1022
1023
1023
1022
1022
1022
530
0
0
191
1021
0
438
1022
1023
1022
1023
1022
1023
1023
1022
1023
1023
1022
1022
978
517
0
0
185
1020
0
204
1022
1022
1022
1023
1023
1023
1023
1022
1023
1022
1022
1022
1022
490
0
0
138
1008
0
396
1022
1023
1022
1023
1022
1022
1023
1022
1023
1022
1023
1022
1022
586
0
0
130
1003
0
332
1022
1023
1022
1023
1022
1023
1023
1022
1023
1022
1022
1023
1022
567
0
0
117
993
0
304
1022
1023
1022
1023
1022
1023
1023
1022
1023
1022
1023
1022
1022
533
0
0
102
984
0
290
1022
1023
1022
1023
1022
1023
1022
1022
1023
1022
1022
1023
1022
251
0
0
349
1022
0
718
1022
1022
1022
1023
1022
1022
1022
1022
1023
1022
1022
1022
1022
667
0
0
157
1013
0
350
1022
1022
1022
1023
1022
1022
1023
1022
1023
1023
1023
1023
1022
576
0
0
127
997
0
389
1022
1023
1022
1023
1023
1023
1023
1022
1023
1023
1023
1023
1022
611
0
0
53
950
0
308
1022
1023
1022
1023
1022
1023
1023
1022
1023
1022
1023
1023
1022
608
0
0
53
951
0
318
1022
1023
1022
1023
1023
1022
1023
1022
1023
1023
1023
1023
1022
568
0
0
0
903
0
308
1022
1022
1022
1023
1023
1023
1022
1023
1023
1022
1022
1023
1022
576
0
0
50
951
0
340
1022
1023
1022
1023
1022
1022
1023
1022
1023
1023
1023
1023
1022
651
0
0
69
960
1
260
1022
1022
1022
1023
1022
1023
1023
1022
1023
1023
1022
1022
1023
659
0
0
0
913
0
176
1022
1023
1022
1023
1022
1023
1023
1022
1023
1022
1023
1023
1022
619
0
0
0
895
0
271
1022
1023
1022
1023
1022
1023
1023
1022
1023
1023
1023
1023
1022
650
0
0
0
728
0
190
1022
1023
1022
1023
1022
1023
1023
1022
1023
1023
1023
1023
1022
635
0
0
0
923
0
255
1022
1023
1022
1023
1023
1023
1023
1022
1023
1022
1023
1022
1022
649
0
0
4
934
0
356
1022
1023
1022
1022
1022
1022
1022
1022
1022
1023
1023
1023
1022
697
0
0
0
888
0
219
1022
1022
1022
1023
1022
1022
1023
1022
1023
1023
1023
1023
1022
701
0
0
0
843
0
127
1016
1023
1022
1023
1022
1023
1023
1022
1023
1023
1023
1023
1022
679
0
0
0
861
0
327
1022
1023
1022
1023
1022
1023
1023
1022
1023
1023
1022
1023
1022
703
0
0
0
844
0
224
1022
1023
1022
1023
1023
1023
1023
1022
1023
1022
1023
1023
1022
671
0
0
0
875
0
292
1022
1022
1022
1023
1023
1022
1022
1023
1023
1022
1022
1023
1022
711
0
0
0
849
0
222
1022
1023
1022
1023
1022
1022
1023
1022
1023
1023
1023
1023
1022
744
0
0
0
850
0
189
1022
1022
1023
1023
1022
1022
1023
1022
1023
1022
1023
1023
1022
738
0
0
0
806
0
311
1022
1023
1022
1023
1022
1023
1023
1022
1023
1023
1023
1023
1022
740
0
0
0
795
0
94
998
1023
1022
1023
1023
1023
1023
1022
1023
1022
1023
1023
1022
729
0
0
0
800
0
156
1021
1023
1022
1023
1022
1023
1023
1022
1023
1022
1023
1023
1022
759
0
0
0
822
7
225
1022
1022
1022
1023
1022
1022
1022
1022
1023
1023
1022
1022
1022
770
0
0
0
809
18
182
1022
1023
1023
1023
1022
1023
1022
1022
1023
1023
1022
1023
1022
778
0
0
0
786
0
92
998
1023
1022
1023
1022
1023
1023
1022
1023
1022
1023
1023
1022
812
0
0
0
794
52
127
1015
1023
1023
1023
1023
1023
1023
1022
1023
1022
1023
1023
1022
812
0
0
0
763
244
0
916
1023
1022
1023
1023
1023
1023
1022
1023
1022
1022
1022
1022
790
0
0
0
782
71
50
975
1022
1023
1023
1022
1023
1023
1023
1023
1023
1023
1023
1022
844
0
0
0
745
77
0
948
1023
1023
1023
1023
1023
1023
1023
1023
1023
1022
1023
1022
812
0
0
0
738
115
0
729
1023
1022
1023
1022
1022
1023
1022
1023
1022
1022
1022
1022
848
0
0
0
766
167
4
960
1023
1022
1023
1022
1023
1023
1022
1023
1022
1022
1023
1022
852
0
0
0
726
151
0
911
1023
1022
1023
1022
1023
1023
1022
1023
1023
1022
1023
1022
822
0
0
0
709
191
3
958
1023
1022
1023
1023
1023
1023
1022
1023
1022
1022
1022
1023
843
0
0
0
718
220
0
925
1022
1022
1023
1022
1022
1023
1022
1023
1023
1022
1022
1022
828
0
0
0
702
229
0
887
1023
1022
1023
1022
1022
1022
1022
1023
1022
1023
1022
1022
855
0
0
0
694
247
1
957
1023
1022
1023
1022
1022
1022
1022
1023
1023
1023
1023
1022
840
0
0
0
693
295
0
935
1022
1022
1023
1023
1023
1023
1022
1023
1022
1023
1023
1022
834
0
0
0
676
313
0
912
1023
1022
1023
1022
1022
1023
1022
1023
1022
1023
1023
1022
857
0
0
0
699
396
39
970
1023
1022
1023
1022
1022
1023
1022
1023
1022
1022
1022
1022
878
0
0
0
672
384
0
908
1023
1023
1023
1022
1023
1023
1022
1023
1023
1023
1023
1022
872
0
0
0
664
420
29
965
1023
1022
1023
1022
1023
1022
1022
1023
1023
1022
1022
1022
902
0
0
0
632
424
0
821
1023
1022
1023
1022
1022
1023
1022
1023
1023
1023
1022
1022
950
0
0
0
643
471
0
892
1022
1022
1023
1022
1023
1023
1022
1023
1022
1023
1023
1022
898
0
0
0
664
524
0
916
1023
1022
1023
1022
1023
1023
1022
1023
1022
1023
1023
1022
911
0
0
0
649
561
0
895
1023
1022
1023
1022
1023
1023
1022
1023
1022
1023
1023
1022
952
7
0
0
634
526
0
876
1023
1022
1023
1022
1023
1023
1022
1023
1023
1023
1023
1022
931
35
0
0
594
516
0
774
1023
1022
1023
1022
1022
1023
1022
1023
1022
1022
1023
1022
1022
135
0
0
584
518
0
675
1023
1023
1023
1022
1023
1023
1022
1023
1022
1023
1023
1022
891
7
0
0
607
604
0
838
1023
1022
1023
1022
1023
1023
1022
1023
1022
1023
1023
1022
932
61
0
0
621
647
0
877
1023
1022
1023
1022
1023
1023
1023
1023
1023
1023
1023
1022
1011
118
0
0
615
662
0
826
1023
1022
1023
1023
1023
1023
1022
1023
1022
1022
1023
1022
1020
132
0
0
577
646
0
764
1022
1022
1023
1023
1022
1022
1022
1023
1022
1023
1023
1022
833
379
0
0
558
592
0
498
1023
1022
1023
1022
1023
1023
1022
1023
1022
1023
1023
1023
889
91
0
0
536
677
0
760
1023
1022
1022
1022
1023
1022
1022
1023
1023
1022
1023
1022
1020
168
0
0
556
714
0
766
1023
1022
1023
1022
1023
1023
1022
1023
1022
1023
1023
1022
977
155
0
0
579
777
0
880
1023
1023
1023
1022
1023
1023
1022
1023
1023
1023
1023
1022
1022
238
0
0
554
770
0
891
1023
1022
1022
1023
1022
1023
1022
1023
1022
1023
1023
1022
1022
125
0
0
751
1018
96
999
1022
1022
1023
1022
1022
1023
1022
1023
1022
1023
1023
1022
1022
309
0
0
523
768
0
679
1022
1022
1023
1023
1023
1022
1023
1023
1022
1023
1022
1022
1021
257
0
0
480
787
0
646
1022
1022
1023
1022
1022
1022
1022
1023
1022
1022
1023
1022
1017
255
0
0
505
850
0
729
1022
1022
1023
1022
1023
1023
1022
1023
1022
1023
1023
1022
1022
306
0
0
536
910
0
798
1023
1022
1023
1022
1023
1023
1022
1023
1023
1023
1023
1022
1022
340
0
0
430
836
0
676
1023
1022
1023
1022
1023
1023
1022
1023
1022
1022
1023
1022
1022
357
0
0
492
914
0
664
1022
1022
1023
1022
1022
1023
1022
1023
1023
1022
1022
1022
1022
333
0
0
487
983
0
696
1023
1022
1023
1023
1023
1023
1022
1023
1022
1022
1022
1023
1022
415
0
0
430
930
0
572
1023
1023
1023
1023
1023
1023
1022
1023
1023
1023
1022
1022
1022
331
0
0
417
971
0
629
1023
1022
1022
1022
1023
1023
1022
1023
1022
1023
1023
1022
1022
319
0
0
213
845
0
705
1023
1022
1023
1022
1023
1023
1022
1023
1023
1023
1023
1022
1022
368
0
0
518
1022
0
817
1023
1023
1022
1022
1022
1022
1022
1023
1023
1022
1023
1022
1023
474
0
0
420
1022
0
559
1023
1022
1022
1023
1022
1022
1022
1023
1023
1023
1023
1022
1022
371
0
0
385
1022
0
660
1022
1022
1022
1023
1023
1023
1022
1023
1022
1022
1022
1022
1022
349
0
0
411
1022
0
801
1023
1023
1023
1022
1022
1023
1022
1023
1023
1023
1023
1022
1022
364
0
0
421
1022
197
1022
1022
1022
1022
1022
1023
1023
1023
1023
1022
1023
1023
1022
1023
445
0
0
359
1022
0
759
1023
1022
1022
1022
1023
1023
1022
1023
1022
1022
1023
1022
1022
397
0
0
331
1022
0
826
1023
1022
1022
1023
1023
1023
1022
1023
1022
1023
1023
1022
1022
329
0
0
312
1022
222
1022
1023
1022
1023
1022
1022
1023
1022
1023
1023
1022
1022
1022
1022
338
0
0
340
1022
590
1023
1022
1022
1023
1023
1022
1023
1022
1023
1023
1022
1023
1022
1022
409
0
0
318
1022
1022
1022
1023
1022
1022
1023
1023
1022
1022
1023
1023
1022
1023
1022
1022
345
0
0
195
1004
654
1023
1023
1022
1023
1023
1023
1023
1022
1023
1022
1023
1023
1023
1022
302
0
0
171
995
690
1023
1023
1022
1023
1022
1023
1023
1022
1023
1022
1023
1023
1023
1022
351
0
0
212
1020
0
452
1023
1022
1023
1022
1023
1023
1022
1023
1023
1022
1022
1022
1022
353
0
0
249
1022
0
525
1023
1022
1023
1022
1022
1023
1023
1023
1022
1023
1022
1022
1022
423
0
0
283
1022
0
446
1022
1022
1023
1023
1023
1023
1022
1023
1022
1022
1022
1022
1022
482
0
0
317
1022
0
504
1022
1022
1023
1023
1023
1022
1022
1023
1022
1023
1023
1022
1023
476
0
0
298
1022
0
437
1023
1022
1023
1022
1023
1023
1022
1023
1023
1022
1023
1023
1023
512
0
0
283
1022
0
388
1023
1022
1023
1022
1023
1023
1022
1023
1023
1023
1023
1022
1023
509
0
0
231
1022
0
322
1022
1022
1023
1022
1023
1022
1023
1022
1023
1022
1022
1022
1023
469
0
0
289
1022
0
100
1005
1022
1023
1023
1023
1022
1022
1023
1023
1022
1022
1022
1022
464
0
0
320
1022
0
681
1023
1022
1023
1022
1023
1023
1022
1023
1023
1023
1023
1022
1022
536
0
0
311
1022
0
590
1022
1022
1023
1022
1023
1023
1022
1023
1022
1023
1023
1022
1022
550
0
0
258
1022
0
486
1023
1022
1023
1022
1023
1023
1022
1023
1022
1023
1023
1022
1022
552
0
0
213
1022
0
300
1022
1022
1023
1022
1022
1022
1022
1023
1023
1023
1023
1022
1022
509
0
0
207
1022
0
303
1022
1022
1023
1023
1022
1023
1022
1022
1022
1022
1023
1022
1023
503
0
0
251
1022
0
382
1023
1022
1023
1022
1023
1022
1022
1023
1023
1023
1022
1022
1023
548
0
0
248
1022
0
407
1023
1022
1023
1022
1022
1023
1022
1023
1023
1022
1023
1022
1022
542
0
0
202
1022
0
332
1022
1022
1023
1022
1023
1023
1022
1023
1022
1023
1023
1022
1023
576
0
0
186
1021
0
247
1022
1022
1022
1022
1023
1023
1022
1023
1022
1023
1023
1022
1023
546
0
0
171
1019
0
234
1022
1023
1023
1022
1022
1023
1022
1023
1023
1023
1023
1022
1022
553
0
0
172
1020
0
275
1022
1022
1022
1023
1022
1023
1022
1022
1022
1022
1023
1022
1022
534
0
0
187
1021
0
376
1022
1023
1023
1023
1022
1023
1022
1022
1022
1023
1023
1022
1022
605
0
0
186
1021
0
346
1022
1022
1023
1022
1023
1023
1022
1023
1022
1022
1023
1022
1022
593
0
0
183
1021
0
321
1022
1022
1023
1023
1023
1023
1022
1023
1023
1023
1023
1022
1023
608
0
0
127
1001
0
213
1022
1022
1023
1022
1023
1023
1022
1022
1022
1022
1023
1022
1022
607
0
0
123
999
0
193
1022
1022
1023
1022
1022
1023
1022
1023
1023
1023
1023
1022
1023
561
0
0
137
1008
0
430
1022
1022
1023
1022
1023
1023
1022
1023
1022
1023
1023
1022
1023
882
0
0
144
1013
0
458
1023
1023
1023
1022
1023
1022
1022
1023
1022
1023
1023
1022
1023
575
0
0
139
1008
0
600
1023
1022
1023
1023
1022
1022
1022
1022
1022
1022
1022
1022
1023
625
0
0
108
986
0
495
1023
1022
1023
1023
1023
1023
1022
1023
1022
1023
1023
1022
1022
632
0
0
87
969
0
399
1022
1022
1023
1022
1023
1023
1022
1022
1022
1023
1022
1023
1023
631
0
0
17
937
0
418
1023
1022
1023
1022
1023
1023
1022
1023
1023
1023
1023
1022
1022
568
0
0
127
997
0
434
1022
1022
1023
1022
1022
1023
1022
1023
1022
1022
1022
1022
1022
621
0
0
72
960
0
520
1023
1022
1023
1022
1023
1022
1022
1023
1023
1023
1022
1022
1023
645
0
0
70
957
0
319
1022
1022
1023
1022
1022
1023
1023
1023
1022
1022
1023
1022
1023
671
0
0
51
948
0
259
1022
1022
1023
1022
1023
1023
1022
1023
1023
1023
1023
1022
1023
667
0
0
8
934
0
212
1022
1022
1023
1022
1023
1023
1022
1023
1022
1023
1023
1022
1023
477
0
0
300
1022
86
849
1023
1022
1023
1022
1023
1023
1022
1023
1023
1023
1023
1022
1023
769
0
0
4
927
0
326
1022
1023
1023
1022
1022
1023
1022
1022
1022
1023
1023
1022
1023
679
0
0
0
900
0
147
1019
1022
1022
1023
1023
1022
1023
1023
1023
1022
1022
1022
1022
682
0
0
0
908
0
214
1022
1022
1023
1023
1022
1022
1022
1022
1022
1023
1023
1022
1023
728
0
0
0
897
0
160
1021
1022
1023
1022
1022
1022
1022
1023
1022
1023
1023
1022
1023
697
0
0
0
834
0
271
1022
1022
1023
1022
1023
1023
1022
1023
1022
1023
1023
1022
1023
729
0
0
0
901
0
159
1021
1022
1023
1022
1022
1023
1022
1023
1023
1023
1023
1022
1023
736
0
0
0
893
0
134
1017
1022
1023
1022
1023
1023
1022
1023
1023
1023
1022
1022
1023
743
0
0
0
883
16
84
993
1022
1023
1022
1023
1023
1022
1022
1023
1022
1022
1022
1023
753
0
0
0
877
24
68
984
1022
1023
1022
1022
1022
1022
1023
1023
1023
1023
1022
1023
749
0
0
0
702
0
2
956
1022
1023
1022
1022
1023
1022
1023
1023
1023
1023
1022
1022
769
0
0
0
872
82
90
998
1022
1023
1022
1023
1023
1022
1022
1023
1023
1023
1022
1023
785
0
0
0
857
91
41
971
1022
1023
1023
1023
1022
1022
1023
1022
1022
1023
1022
1023
794
0
0
0
851
88
19
964
1022
1023
1023
1022
1023
1022
1023
1023
1022
1023
1022
1023
786
0
0
0
822
96
0
938
1022
1023
1022
1023
1023
1022
1023
1023
1023
1022
1022
1023
770
0
0
0
824
194
154
1021
1022
1023
1022
1022
1023
1022
1023
1022
1023
1023
1022
1023
791
0
0
0
836
145
113
1010
1022
1023
1022
1023
1023
1022
1023
1023
1023
1023
1022
1023
817
0
0
0
814
179
31
967
1022
1023
1022
1023
1023
1022
1022
1023
1023
1023
1022
1022
824
0
0
0
807
201
0
915
1022
1023
1022
1023
1023
1022
1023
1022
1023
1023
1022
1023
830
0
0
0
797
170
0
955
1022
1022
1022
1022
1023
1022
1022
1023
1022
1022
1022
1023
812
0
0
0
779
179
539
1023
1023
1023
1022
1023
1023
1022
1023
1023
1023
1023
1022
1023
824
0
0
0
762
225
251
1022
1022
1023
1022
1023
1023
1022
1022
1023
1022
1022
1022
1023
789
0
0
0
778
271
448
1022
1022
1023
1022
1022
1023
1022
1023
1022
1022
1023
1022
1023
833
0
0
0
764
263
397
1023
1022
1023
1023
1023
1023
1022
1023
1022
1023
1022
1022
1023
839
0
0
0
722
254
362
1022
1023
1022
1022
1023
1022
1022
1023
1023
1023
1022
1022
1023
845
0
0
0
698
79
251
1022
1022
1023
1023
1023
1023
1022
1022
1022
1022
1022
1022
1023
879
0
0
0
728
310
374
1022
1022
1023
1022
1022
1022
1022
1022
1023
1023
1023
1022
1022
871
0
0
0
708
320
0
928
1022
1023
1023
1023
1023
1022
1023
1023
1023
1023
1022
1023
831
0
0
0
728
335
132
1016
1022
1023
1022
1023
1023
1022
1023
1023
1023
1023
1022
1023
905
0
0
0
727
378
0
904
1022
1023
1022
1023
1023
1022
1023
1023
1023
1023
1022
1023
924
0
0
0
711
387
0
580
1022
1023
1023
1023
1022
1022
1023
1023
1023
1023
1022
1023
913
0
0
0
710
421
0
936
1022
1022
1022
1022
1023
1022
1022
1023
1023
1023
1022
1022
936
0
0
0
695
409
0
831
1022
1022
1022
1022
1023
1022
1023
1023
1023
1022
1022
1022
891
0
0
0
686
445
0
899
1022
1023
1022
1023
1022
1022
1022
1022
1023
1023
1022
1022
922
0
0
0
705
471
0
947
1022
1022
1022
1022
1023
1022
1022
1023
1023
1023
1022
1023
964
0
0
0
676
502
0
881
1022
1023
1022
1023
1023
1022
1023
1022
1022
1023
1022
1023
996
0
0
0
652
448
0
816
1022
1023
1022
1022
1022
1022
1023
1023
1023
1023
1022
1022
930
0
0
0
609
455
0
881
1022
1023
1022
1023
1022
1022
1022
1023
1023
1023
1022
1023
897
0
0
0
611
500
0
876
1022
1023
1022
1023
1023
1023
1022
1023
1023
1023
1022
1022
939
5
0
0
653
583
0
880
1022
1022
1022
1022
1023
1022
1023
1022
1023
1023
1023
1023
1014
42
0
0
669
612
0
889
1022
1023
1023
1023
1023
1022
1023
1022
1023
1023
1022
1023
1019
80
0
0
607
568
0
761
1022
1023
1022
1022
1023
1022
1023
1022
1022
1023
1022
1023
1021
96
0
0
599
587
0
727
1023
1023
1023
1022
1023
1022
1023
1023
1023
1023
1022
1022
1022
98
0
0
573
551
0
728
1022
1023
1023
1023
1022
1022
1022
1022
1023
1023
1022
1023
945
75
0
0
571
617
0
755
1022
1022
1022
1023
1022
1022
1023
1023
1023
1022
1022
1023
964
115
0
0
591
678
0
786
1022
1022
1022
1023
1022
1022
1023
1023
1023
1023
1022
1022
1022
164
0
0
593
676
0
736
1022
1023
1022
1023
1023
1022
1023
1022
1023
1023
1022
1022
1022
174
0
0
566
660
0
735
1022
1023
1022
1023
1023
1022
1023
1022
1023
1023
1022
1022
1022
392
0
0
511
616
0
432
1022
1022
1022
1023
1022
1022
1023
1022
1023
1022
1022
1022
951
155
0
0
525
700
0
641
1022
1022
1023
1023
1023
1022
1022
1023
1023
1023
1022
1022
1022
230
0
0
542
733
0
658
1022
1022
1023
1023
1022
1022
1022
1023
1023
1023
1022
1023
1022
236
0
0
524
769
0
679
1022
1023
1022
1023
1023
1022
1023
1023
1023
1023
1022
1022
1022
273
0
0
536
780
0
728
1022
1023
1022
1023
1023
1022
1022
1023
1023
1023
1022
1023
802
296
0
0
574
844
0
861
1022
1023
1022
1023
1023
1022
1022
1023
1022
1022
1022
1023
1022
310
0
0
459
764
0
651
1022
1023
1022
1022
1023
1022
1023
1022
1023
1022
1022
1022
1022
275
0
0
472
810
0
627
1022
1023
1023
1023
1023
1022
1022
1022
1023
1023
1022
1022
1022
311
0
0
487
865
0
661
1022
1023
1022
1023
1023
1022
1023
1022
1023
1022
1022
1022
1022
333
0
0
470
897
0
636
1022
1023
1022
1023
1023
1022
1022
1022
1023
1023
1022
1023
1022
105
0
0
674
1022
0
850
1022
1023
1022
1022
1023
1022
1023
1023
1023
1023
1022
1022
1022
489
0
0
484
931
0
457
1022
1023
1022
1023
1023
1022
1023
1022
1022
1022
1022
1023
1022
317
0
0
452
990
0
562
1022
1022
1022
1023
1023
1022
1022
1023
1023
1023
1022
1023
1022
389
0
0
450
1019
0
481
1022
1022
1022
1023
1023
1022
1022
1022
1023
1023
1022
1022
1022
392
0
0
454
1021
0
510
1022
1023
1022
1023
1023
1022
1023
1023
1023
1022
1022
1023
1022
409
0
0
365
1017
0
434
1022
1023
1022
1023
1023
1022
1023
1022
1023
1023
1022
1023
1022
382
0
0
411
1022
0
437
1022
1023
1022
1023
1022
1022
1023
1023
1023
1023
1022
1022
1022
416
0
0
393
1022
0
451
1022
1023
1022
1023
1023
1022
1022
1022
1023
1023
1022
1023
1022
427
0
0
421
1022
0
482
1022
1023
1022
1023
1023
1022
1023
1022
1023
1023
1022
1022
1022
401
0
0
370
1022
0
433
1022
1022
1022
1023
1023
1022
1022
1022
1022
1023
1022
1023
1022
427
0
0
179
960
0
390
1022
1022
1022
1023
1022
1022
1022
1023
1023
1023
1022
1023
1022
423
0
0
389
1022
0
611
1022
1022
1022
1023
1023
1022
1023
1022
1023
1023
1022
1023
1022
442
0
0
362
1022
0
404
1022
1022
1022
1022
1023
1022
1023
1023
1023
1023
1022
1022
1022
439
0
0
347
1022
0
460
1022
1022
1022
1023
1023
1022
1022
1022
1023
1023
1022
1022
1022
472
0
0
352
1022
0
389
1022
1022
1023
1023
1023
1022
1023
1022
1023
1023
1022
1022
1022
434
0
0
349
1023
0
570
1022
1023
1022
1023
1023
1022
1022
1023
1023
1023
1022
1023
1022
428
0
0
346
1022
0
462
1022
1023
1023
1023
1022
1022
1023
1023
1023
1023
1022
1023
1022
507
0
0
327
1022
0
402
1022
1023
1022
1023
1023
1022
1023
1022
1023
1023
1022
1023
1022
491
0
0
332
1022
0
424
1022
1023
1023
1022
1023
1022
1022
1023
1023
1023
1022
1023
1022
459
0
0
308
1022
0
419
1022
1023
1022
1023
1022
1022
1022
1022
1022
1023
1022
1022
1023
488
0
0
315
1022
0
739
1022
1022
1023
1023
1023
1022
1023
1023
1023
1023
1022
1022
1022
486
0
0
296
1022
0
361
1022
1022
1023
1023
1023
1022
1022
1023
1023
1023
1022
1023
1022
482
0
0
289
1022
0
387
1022
1022
1022
1023
1023
1022
1023
1023
1023
1023
1022
1022
1022
507
0
0
284
1022
0
414
1022
1023
1023
1023
1023
1022
1022
1022
1022
1022
1022
1023
1022
516
0
0
265
1022
0
352
1022
1023
1023
1023
1023
1022
1023
1023
1023
1023
1022
1022
1022
512
0
0
252
1022
0
224
1022
1023
1022
1023
1023
1022
1023
1023
1023
1023
1022
1023
1022
522
0
0
275
1022
0
378
1022
1023
1022
1023
1022
1022
1022
1023
1023
1022
1022
1022
1022
510
0
0
258
1022
0
527
1022
1023
1023
1023
1023
1022
1023
1022
1023
1023
1022
1023
1022
525
0
0
251
1022
0
369
1022
1022
1022
1023
1022
1022
1023
1022
1023
1023
1022
1022
1022
546
0
0
206
1022
0
217
1022
1023
1023
1023
1023
1022
1023
1022
1023
1023
1022
1023
1022
534
0
0
206
1022
0
0
854
1022
1022
1023
1023
1022
1023
1022
1023
1023
1022
1022
1022
486
0
0
249
1022
0
430
1022
1023
1023
1023
1023
1022
1023
1022
1023
1023
1022
1022
1022
552
0
0
244
1022
0
425
1022
1023
1022
1023
1022
1022
1022
1023
1023
1023
1022
1022
1022
531
0
0
179
1020
0
349
1022
1023
1023
1023
1023
1022
1022
1022
1023
1023
1022
1023
1022
522
0
0
225
1022
0
408
1022
1023
1022
1023
1022
1022
1023
1023
1023
1023
1022
1023
1022
545
0
0
208
1022
0
425
1022
1023
1022
1023
1023
1022
1022
1022
1023
1023
1022
1023
1022
538
0
0
182
1020
0
395
1022
1023
1023
1023
1023
1022
1023
1022
1023
1023
1022
1023
1023
593
0
0
197
1021
0
297
1022
1023
1023
1023
1023
1023
1022
1022
1022
1023
1022
1023
1022
530
0
0
164
1017
0
475
1022
1023
1023
1023
1023
1022
1022
1023
1023
1023
1022
1022
1022
538
0
0
174
1019
0
548
1022
1022
1023
1023
1023
1022
1023
1022
1023
1023
1022
1023
1022
608
0
0
137
1003
0
445
1022
1023
1023
1022
1023
1022
1023
1022
1023
1023
1022
1022
1022
564
0
0
133
1001
0
390
1022
1023
1022
1023
1023
1022
1023
1022
1023
1023
1022
1022
1022
585
0
0
99
978
0
504
1022
1023
1022
1022
1023
1022
1022
1023
1023
1023
1022
1023
1022
634
0
0
92
973
0
915
1023
1022
1022
1022
1022
1022
1022
1023
1023
1023
1022
1023
1023
551
0
0
71
954
0
916
1022
1022
1022
1022
1023
1022
1022
1022
1023
1023
1022
1022
1022
544
0
0
15
927
665
1023
1022
1022
1023
1023
1023
1022
1022
1022
1023
1023
1022
1022
1022
524
0
0
0
876
587
1023
1022
1023
1023
1023
1022
1022
1022
1022
1023
1023
1022
1023
1022
527
0
0
0
824
440
1022
1022
1022
1022
1023
1023
1022
1023
1022
1023
1023
1022
1023
1022
896
0
0
0
854
0
63
967
1023
1022
1022
1022
1022
1022
1022
1023
1023
1022
1022
1022
529
0
0
0
862
0
302
1022
1023
1022
1023
1023
1022
1023
1022
1023
1023
1022
1023
1023
653
0
0
0
880
0
318
1022
1023
1022
1023
1022
1022
1022
1023
1023
1023
1022
1022
1022
660
0
0
0
918
0
273
1022
1023
1023
1022
1023
1022
1022
1022
1023
1023
1022
1022
1023
662
0
0
1
927
0
210
1022
1023
1022
1023
1023
1022
1022
1022
1023
1023
1022
1022
1022
586
0
0
98
976
66
269
1022
1023
1022
1023
1023
1022
1022
1022
1023
1023
1022
1022
1023
719
0
0
0
913
25
216
1022
1023
1022
1023
1022
1022
1023
1023
1023
1022
1022
1022
1022
732
0
0
0
894
32
152
1020
1023
1023
1023
1023
1022
1022
1022
1023
1023
1022
1023
1023
717
0
0
0
884
50
131
1016
1023
1022
1023
1023
1022
1023
1023
1023
1023
1022
1023
1022
702
0
0
0
870
90
97
1001
1022
1023
1023
1023
1022
1023
1023
1023
1023
1022
1022
1023
733
0
0
179
1020
300
563
1022
1022
1022
1023
1022
1022
1023
1022
1023
1023
1022
1023
1023
855
0
0
0
910
164
372
1022
1023
1022
1023
1023
1022
1023
1022
1023
1023
1022
1022
1022
762
0
0
0
856
146
138
1017
1022
1022
1023
1023
1022
1023
1022
1023
1023
1022
1022
1023
776
0
0
0
843
164
65
980
1023
1023
1023
1023
1022
1022
1022
1022
1023
1022
1023
1022
751
0
0
0
857
205
146
1019
1023
1022
1023
1022
1022
1022
1023
1023
1023
1022
1023
1023
792
0
0
0
785
190
109
1007
1023
1023
1023
1023
1022
1023
1022
1023
1023
1022
1023
1022
774
0
0
0
844
277
102
1003
1022
1023
1023
1023
1022
1023
1022
1023
1022
1022
1023
1022
813
0
0
0
839
297
93
998
1023
1022
1023
1023
1022
1022
1022
1023
1023
1022
1023
1023
807
0
0
0
812
292
48
972
1022
1022
1023
1022
1022
1023
1022
1023
1023
1022
1023
1023
807
0
0
0
815
312
0
929
1022
1023
1023
1023
1022
1022
1023
1023
1022
1022
1023
1023
800
0
0
0
655
206
0
886
1023
1022
1023
1023
1022
1022
1023
1023
1023
1022
1022
1023
807
0
0
0
796
358
49
975
1023
1022
1023
1023
1022
1023
1023
1023
1023
1022
1022
1022
826
0
0
0
807
401
112
1009
1023
1023
1023
1022
1022
1023
1023
1023
1023
1022
1023
1023
870
0
0
0
810
401
60
978
1023
1023
1023
1023
1022
1022
1022
1022
1023
1022
1023
1023
893
0
0
0
774
380
0
929
1023
1022
1022
1022
1022
1023
1023
1023
1023
1022
1022
1022
875
0
0
0
750
494
71
984
1023
1022
1023
1023
1022
1023
1022
1023
1023
1022
1023
1023
862
0
0
0
750
451
0
887
1023
1022
1023
1022
1022
1022
1022
1023
1023
1022
1023
1022
840
0
0
0
750
462
143
1019
1023
1023
1022
1022
1022
1023
1022
1023
1023
1022
1023
1023
877
0
0
0
743
497
35
966
1022
1022
1023
1023
1022
1023
1022
1023
1023
1022
1022
1023
902
0
0
0
725
494
0
880
1023
1023
1023
1023
1022
1022
1022
1023
1022
1022
1023
1023
919
0
0
0
722
485
246
1022
1022
1022
1022
1022
1022
1023
1023
1023
1023
1022
1023
1023
940
0
0
0
649
461
0
773
1022
1023
1022
1023
1022
1022
1023
1023
1023
1022
1023
1023
906
0
0
0
635
490
0
764
1023
1022
1023
1022
1022
1023
1022
1023
1022
1022
1023
1023
879
0
0
0
681
594
0
861
1023
1023
1023
1023
1022
1022
1023
1023
1023
1022
1023
1023
931
0
0
0
701
633
0
914
1023
1022
1022
1022
1022
1023
1023
1023
1023
1022
1023
1022
963
16
0
0
692
541
0
764
1022
1022
1023
1023
1022
1023
1022
1023
1023
1022
1023
1023
1020
91
0
0
655
648
0
764
1023
1022
1023
1023
1022
1022
1023
1023
1023
1023
1023
1022
1022
82
0
0
632
643
0
745
1022
1022
1023
1022
1022
1023
1022
1023
1023
1022
1023
1023
935
39
0
0
625
681
0
820
1023
1023
1023
1023
1022
1023
1022
1023
1022
1022
1023
1023
962
82
0
0
657
759
0
863
1022
1022
1023
1023
1022
1023
1022
1022
1023
1022
1023
1022
1020
123
0
0
655
807
0
535
1023
1022
1022
1023
1022
1023
1023
1023
1023
1022
1023
1022
1022
152
0
0
630
764
0
842
1023
1022
1023
1023
1023
1022
1022
1023
1023
1022
1023
1023
1022
199
0
0
613
774
0
754
1022
1023
1022
1022
1022
1023
1023
1023
1023
1022
1023
1023
1010
155
0
0
569
782
0
817
1023
1023
1023
1023
1022
1022
1023
1023
1022
1022
1023
1023
1022
175
0
0
569
800
0
724
1022
1022
1023
1023
1022
1023
1023
1023
1023
1022
1023
1023
1022
218
0
0
573
888
0
729
1023
1023
1023
1023
1022
1023
1023
1023
1023
1022
1023
1023
1021
223
0
0
588
956
0
783
1023
1022
1022
1022
1022
1023
1023
1023
1023
1022
1022
1022
1022
284
0
0
574
913
0
803
1023
1022
1022
1022
1022
1022
1023
1022
1023
1022
1023
1023
1022
292
0
0
494
851
0
724
1023
1022
1023
1022
1022
1022
1023
1023
1023
1022
1023
1022
1022
298
0
0
467
848
0
627
1022
1023
1022
1023
1022
1022
1023
1023
1023
1022
1023
1023
1022
297
0
0
482
943
0
662
1022
1022
1022
1022
1022
1023
1023
1023
1023
1022
1022
1022
1022
279
0
0
519
1021
0
728
1022
1023
1023
1023
1022
1023
1023
1022
1023
1022
1023
1023
1022
315
0
0
508
1022
0
764
1023
1022
1022
1023
1022
1023
1022
1023
1023
1022
1022
1022
1022
379
0
0
507
1022
0
688
1023
1023
1022
1023
1022
1023
1022
1022
1022
1022
1023
1022
1022
339
0
0
475
1022
0
684
1022
1023
1023
1023
1022
1023
1023
1023
1023
1022
1022
1023
1022
365
0
0
453
1022
0
739
1023
1022
1022
1023
1022
1023
1023
1022
1023
1023
1022
1023
1022
369
0
0
438
1022
0
694
1022
1023
1023
1023
1022
1022
1023
1022
1023
1023
1022
1022
1022
340
0
0
432
1022
0
796
1023
1022
1022
1023
1022
1022
1022
1022
1023
1022
1023
1023
1022
536
0
0
447
1022
0
571
1022
1022
1022
1023
1022
1023
1023
1023
1023
1022
1023
1022
1022
337
0
0
457
1022
0
833
1023
1022
1022
1022
1022
1023
1022
1023
1023
1022
1022
1022
1022
434
0
0
443
1022
0
640
1022
1022
1023
1022
1023
1023
1022
1023
1023
1022
1023
1023
1022
402
0
0
394
1022
0
601
1023
1023
1023
1023
1022
1023
1023
1022
1023
1022
1023
1023
1022
414
0
0
380
1022
0
567
1023
1023
1023
1022
1022
1023
1022
1023
1022
1022
1022
1022
852
406
0
0
430
1022
0
512
1023
1023
1022
1023
1022
1022
1022
1023
1022
1022
1023
1023
1022
368
0
0
375
1022
0
636
1022
1023
1022
1023
1022
1022
1022
1022
1023
1022
1023
1022
1022
420
0
0
363
1022
0
585
1022
1022
1022
1023
1023
1023
1022
1023
1023
1022
1023
1023
1023
462
0
0
374
1023
0
606
1022
1022
1023
1022
1022
1023
1022
1023
1023
1023
1023
1023
1022
436
0
0
352
1023
0
558
1023
1022
1023
1023
1022
1022
1023
1022
1023
1022
1023
1023
1022
127
0
0
583
1023
0
939
1022
1022
1023
1023
1022
1023
1023
1023
1023
1022
1022
1023
1023
555
0
0
344
1022
0
537
1022
1022
1022
1023
1022
1023
1022
1023
1023
1022
1022
1023
1022
420
0
0
295
1022
0
498
1022
1022
1022
1022
1022
1023
1022
1022
1022
1022
1023
1022
1022
447
0
0
307
1022
0
533
1023
1023
1022
1023
1022
1022
1022
1023
1023
1022
1022
1022
1022
471
0
0
305
1022
0
629
1022
1022
1022
1023
1023
1022
1023
1023
1023
1022
1022
1022
1022
494
0
0
178
1020
0
442
1023
1022
1022
1023
1022
1023
1022
1023
1023
1022
1023
1023
1022
472
0
0
259
1022
0
420
1022
1023
1022
1022
1022
1022
1022
1023
1023
1022
1023
1022
1022
472
0
0
263
1022
0
581
1022
1022
1022
1023
1022
1023
1023
1023
1023
1022
1022
1023
1022
503
0
0
251
1022
0
418
1022
1023
1022
1023
1022
1023
1023
1023
1023
1022
1022
1022
1022
500
0
0
231
1022
0
436
1022
1022
1023
1022
1022
1022
1023
1023
1022
1022
1023
1023
1022
515
0
0
0
886
0
384
1022
1022
1022
1023
1022
1022
1022
1023
1023
1022
1023
1023
1023
535
0
0
214
1022
0
441
1023
1023
1023
1023
1022
1022
1022
1022
1023
1023
1022
1023
1023
505
0
0
206
1022
0
353
1022
1022
1023
1023
1023
1023
1022
1023
1023
1022
1023
1023
1023
519
0
0
223
1022
0
519
1022
1022
1022
1023
1022
1023
1022
1022
1022
1022
1023
1022
1022
573
0
0
213
1022
0
387
1022
1022
1022
1022
1022
1023
1022
1023
1023
1022
1023
1023
1022
553
0
0
190
1021
0
633
1023
1023
1023
1022
1022
1022
1022
1023
1023
1022
1022
1023
1022
535
0
0
160
1015
0
504
1022
1023
1023
1023
1022
1023
1022
1023
1023
1022
1023
1022
1022
554
0
0
134
1002
0
488
1022
1023
1023
1023
1022
1023
1022
1022
1023
1022
1023
1023
1023
555
0
0
127
997
0
420
1023
1023
1023
1023
1022
1022
1022
1023
1023
1022
1023
1023
1022
557
0
0
112
988
0
383
1022
1023
1022
1023
1022
1023
1022
1022
1023
1022
1023
1023
1023
563
0
0
122
995
0
778
1023
1023
1022
1023
1022
1022
1023
1022
1023
1022
1023
1022
1022
595
0
0
100
976
0
453
1022
1023
1022
1023
1022
1022
1023
1022
1022
1022
1023
1023
1022
609
0
0
76
961
0
327
1022
1023
1022
1023
1022
1023
1023
1022
1023
1022
1022
1023
1023
623
0
0
46
947
0
313
1022
1022
1023
1023
1022
1022
1022
1023
1023
1022
1022
1023
1023
632
0
0
19
938
0
345
1022
1022
1023
1022
1022
1022
1023
1023
1023
1022
1022
1022
1023
603
0
0
26
940
0
142
1019
1022
1022
1022
1022
1022
1023
1022
1023
1023
1022
1023
1022
623
0
0
24
942
0
357
1022
1023
1022
1022
1022
1023
1023
1023
1022
1022
1022
1022
1022
647
0
0
51
951
0
371
1022
1023
1023
1022
1022
1022
1023
1023
1022
1022
1023
1023
1023
639
0
0
9
934
0
339
1022
1022
1022
1023
1022
1022
1022
1023
1022
1022
1023
1023
1023
657
0
0
0
909
0
284
1022
1022
1023
1023
1022
1023
1022
1022
1023
1023
1023
1022
1023
667
0
0
0
896
0
0
900
1022
1022
1023
1022
1022
1023
1023
1023
1022
1022
1023
1022
675
0
0
0
918
0
295
1022
1023
1022
1023
1022
1023
1023
1022
1023
1022
1023
1023
1022
676
0
0
0
915
0
297
1022
1023
1022
1022
1022
1023
1023
1022
1022
1022
1022
1022
1022
675
0
0
0
892
0
277
1022
1022
1023
1022
1022
1022
1022
1023
1022
1022
1023
1023
1023
705
0
0
0
870
0
221
1022
1023
1023
1022
1022
1023
1023
1022
1023
1022
1023
1022
1023
713
0
0
0
855
0
150
1020
1023
1023
1022
1022
1022
1023
1022
1023
1022
1023
1023
1023
687
0
0
0
852
0
171
1022
1022
1023
1023
1022
1022
1023
1023
1023
1022
1022
1022
1022
711
0
0
0
862
7
243
1022
1023
1022
1022
1022
1022
1022
1022
1023
1022
1022
1022
1022
688
0
0
0
853
31
202
1022
1022
1022
1023
1022
1023
1023
1022
1022
1022
1022
1022
1022
748
0
0
0
874
63
191
1022
1022
1022
1023
1022
1023
1023
1022
1023
1022
1023
1023
1022
770
0
0
0
838
9
138
1018
1023
1022
1022
1022
1023
1023
1023
1023
1022
1023
1023
1023
759
0
0
0
793
59
3
957
1023
1022
1023
1023
1022
1022
1022
1023
1022
1023
1023
1023
770
0
0
0
812
69
0
934
1023
1023
1023
1022
1022
1022
1023
1023
1022
1022
1022
1022
845
0
0
0
790
89
98
1003
1022
1022
1023
1022
1022
1022
1022
1023
1022
1023
1022
1023
748
0
0
0
809
147
151
1020
1023
1022
1023
1022
1023
1022
1022
1022
1022
1023
1022
1022
794
0
0
0
792
150
0
932
1022
1022
1023
1022
1022
1023
1023
1023
1023
1022
1022
1022
790
0
0
0
787
146
10
961
1022
1022
1023
1022
1022
1022
1023
1023
1022
1022
1023
1023
831
0
0
0
777
168
0
931
1023
1023
1023
1022
1022
1022
1023
1023
1022
1022
1023
1022
977
0
0
0
729
94
0
695
1023
1023
1022
1022
1023
1023
1022
1023
1022
1022
1022
1022
748
0
0
0
745
183
0
930
1023
1022
1023
1022
1023
1023
1022
1023
1022
1023
1023
1022
843
0
0
0
773
265
0
915
1022
1023
1022
1022
1022
1022
1023
1023
1022
1022
1022
1023
856
0
0
0
776
284
0
946
1022
1022
1023
1022
1023
1022
1022
1023
1022
1023
1022
1023
858
0
0
0
742
264
0
890
1022
1023
1022
1022
1022
1023
1023
1022
1022
1022
1023
1023
702
0
0
0
806
329
21
965
1022
1023
1022
1022
1022
1023
1023
1023
1022
1023
1023
1023
910
0
0
0
722
277
0
868
1023
1023
1023
1022
1023
1023
1022
1023
1022
1022
1023
1022
844
0
0
0
712
315
0
912
1023
1023
1022
1022
1022
1022
1022
1023
1022
1022
1023
1022
877
0
0
0
710
334
0
945
1022
1022
1022
1022
1023
1023
1022
1023
1022
1022
1023
1023
897
0
0
0
715
381
0
931
1023
1023
1022
1022
1023
1023
1023
1023
1022
1023
1022
1022
893
0
0
0
866
601
481
1022
1023
1023
1023
1022
1023
1022
1023
1023
1022
1023
1023
1023
1022
1
0
0
720
413
0
914
1022
1023
1023
1022
1023
1023
1023
1023
1022
1022
1023
1023
908
0
0
0
644
383
0
846
1022
1022
1023
1022
1022
1023
1022
1022
1022
1023
1022
1022
906
0
0
0
639
404
0
803
1022
1022
1023
1022
1023
1022
1023
1022
1022
1023
1023
1022
880
0
0
0
670
484
0
892
1022
1022
1023
1023
1023
1022
1023
1023
1022
1023
1023
1022
926
0
0
0
584
423
0
899
1023
1022
1023
1022
1023
1023
1023
1023
1022
1023
1023
1023
937
0
0
0
652
488
0
953
1022
1023
1023
1022
1022
1023
1023
1023
1022
1022
1022
1022
945
4
0
0
627
488
0
779
1023
1023
1023
1022
1022
1022
1022
1023
1023
1023
1023
1022
960
0
0
0
618
504
0
861
1023
1022
1023
1022
1023
1023
1022
1023
1022
1023
1022
1022
925
7
0
0
624
566
0
795
1023
1022
1023
1022
1022
1022
1022
1022
1022
1023
1022
1022
956
32
0
0
475
503
0
713
1022
1022
1022
1022
1022
1022
1022
1023
1022
1022
1023
1022
949
33
0
0
619
612
0
787
1022
1022
1023
1022
1022
1022
1023
1023
1022
1023
1023
1023
933
30
0
0
624
651
0
911
1023
1022
1022
1022
1022
1022
1022
1023
1022
1022
1023
1022
973
90
0
0
623
699
0
893
1022
1023
1022
1022
1023
1023
1022
1023
1022
1023
1023
1023
1022
147
0
0
592
679
0
830
1023
1022
1022
1022
1022
1023
1022
1023
1022
1022
1023
1022
1021
102
0
0
552
720
0
923
1023
1022
1023
1022
1023
1022
1022
1023
1023
1023
1022
1022
964
98
0
0
540
671
0
782
1022
1022
1023
1022
1022
1022
1022
1023
1022
1022
1023
1022
945
115
0
0
587
790
0
847
1022
1023
1023
1022
1022
1022
1022
1023
1022
1022
1023
1023
1020
153
0
0
592
830
0
839
1022
1022
1023
1022
1023
1023
1023
1022
1022
1022
1023
1023
1022
195
0
0
584
809
0
763
1022
1023
1023
1022
1022
1022
1022
1023
1023
1023
1023
1023
1022
246
0
0
527
744
149
1020
1022
1022
1022
1022
1022
1022
1022
1023
1022
1022
1022
1022
1022
222
0
0
486
747
0
665
1022
1022
1023
1022
1023
1023
1022
1023
1022
1022
1023
1022
1022
204
0
0
515
798
0
707
1022
1022
1023
1022
1023
1023
1022
1023
1023
1022
1022
1023
1019
216
0
0
506
852
0
810
1022
1022
1023
1022
1022
1022
1023
1023
1022
1022
1023
1022
1022
283
0
0
542
942
0
816
1022
1023
1023
1022
1023
1022
1022
1023
1022
1023
1023
1022
1022
305
0
0
507
822
0
708
1022
1022
1023
1022
1023
1023
1022
1023
1022
1023
1023
1023
1022
316
0
0
487
941
0
785
1022
1022
1023
1022
1022
1022
1022
1022
1022
1023
1022
1022
1022
316
0
0
465
972
0
712
1022
1022
1023
1022
1022
1022
1022
1023
1022
1022
1023
1022
1022
303
0
0
478
1019
0
707
1022
1022
1022
1023
1022
1023
1022
1023
1023
1022
1022
1022
1022
312
0
0
497
1022
0
767
1022
1023
1022
1022
1022
1022
1022
1023
1023
1022
1022
1022
1022
324
0
0
490
1022
0
524
1023
1022
1023
1023
1022
1022
1022
1023
1022
1023
1023
1023
1022
367
0
0
459
1022
0
695
1022
1022
1023
1022
1022
1022
1022
1023
1022
1023
1023
1022
1022
375
0
0
456
1022
0
675
1022
1022
1023
1022
1023
1023
1022
1022
1022
1022
1022
1022
1022
335
0
0
432
1022
0
676
1023
1022
1022
1022
1022
1023
1022
1023
1022
1023
1023
1022
1022
360
0
0
401
1022
0
685
1022
1022
1022
1022
1022
1022
1023
1023
1023
1023
1023
1023
1022
343
0
0
436
1022
0
761
1022
1023
1023
1022
1023
1023
1023
1023
1022
1023
1022
1023
1022
343
0
0
450
1023
0
843
1022
1023
1023
1022
1023
1023
1023
1022
1022
1023
1022
1022
1022
449
0
0
417
1022
0
719
1023
1022
1022
1023
1022
1022
1023
1023
1023
1023
1022
1022
1022
347
0
0
376
1022
0
714
1022
1022
1022
1022
1023
1022
1022
1023
1022
1022
1022
1022
1022
429
0
0
361
1022
0
624
1022
1022
1023
1022
1022
1023
1022
1023
1022
1023
1023
1022
1022
334
0
0
385
1023
0
713
1022
1022
1023
1023
1023
1022
1023
1023
1022
1022
1023
1023
1023
433
0
0
348
1022
0
606
1022
1023
1023
1022
1022
1022
1023
1023
1022
1022
1023
1023
1022
377
0
0
361
1022
0
656
1022
1022
1023
1023
1022
1022
1023
1022
1022
1022
1023
1023
1023
459
0
0
313
1022
0
647
1022
1022
1022
1022
1022
1022
1022
1022
1022
1023
1022
1022
1022
419
0
0
348
1022
0
678
1023
1022
1023
1022
1022
1022
1022
1023
1022
1022
1023
1022
1022
460
0
0
327
1022
0
627
1022
1022
1022
1022
1022
1022
1022
1023
1022
1023
1023
1022
1022
451
0
0
287
1022
0
823
1022
1022
1023
1022
1022
1023
1022
1023
1022
1023
1023
1022
1022
395
0
0
256
1022
116
1008
1022
1023
1023
1022
1023
1023
1022
1023
1022
1023
1022
1023
1022
672
0
0
259
1022
304
1022
1023
1023
1023
1022
1023
1023
1023
1023
1023
1023
1023
1023
1022
339
0
0
251
1022
801
1022
1022
1022
1023
1022
1022
1023
1022
1023
1022
1023
1023
1022
1022
432
0
0
162
1007
601
1022
1022
1022
1023
1022
1023
1022
1023
1023
1022
1022
1022
1022
1022
344
0
0
141
989
774
1023
1022
1022
1023
1022
1022
1022
1022
1023
1022
1023
1023
1022
1022
371
0
0
157
996
0
580
1022
1022
1022
1022
1022
1022
1023
1023
1022
1022
1022
1022
1020
383
0
0
273
1022
0
758
1022
1023
1023
1022
1022
1023
1022
1023
1022
1022
1022
1022
1022
451
0
0
204
1021
0
663
1023
1022
1023
1022
1023
1022
1023
1022
1022
1022
1022
1022
1022
471
0
0
210
1022
0
549
1022
1023
1023
1022
1022
1022
1022
1023
1022
1023
1023
1022
1022
496
0
0
205
1022
0
559
1022
1022
1023
1022
1023
1022
1022
1023
1022
1022
1022
1022
1022
516
0
0
197
1021
0
516
1022
1022
1023
1023
1023
1023
1022
1023
1022
1023
1022
1022
1023
281
0
0
406
1022
0
859
1022
1022
1023
1022
1023
1022
1023
1023
1022
1023
1023
1023
1023
601
0
0
225
1022
0
520
1022
1023
1022
1022
1022
1023
1023
1023
1022
1023
1022
1022
1022
508
0
0
179
1019
0
480
1023
1022
1023
1022
1022
1023
1023
1023
1022
1022
1022
1023
1022
555
0
0
169
1017
0
436
1023
1023
1023
1022
1023
1022
1022
1023
1022
1023
1023
1022
1022
560
0
0
173
1018
0
458
1022
1022
1022
1022
1023
1023
1022
1023
1022
1022
1022
1022
1022
531
0
0
48
948
0
503
1022
1023
1023
1022
1023
1022
1023
1023
1022
1023
1023
1023
1022
607
0
0
133
1002
0
390
1022
1023
1023
1022
1022
1022
1022
1022
1022
1022
1023
1023
1022
576
0
0
78
965
0
309
1022
1023
1023
1022
1022
1023
1023
1022
1022
1023
1023
1023
1022
533
0
0
98
979
0
427
1022
1022
1023
1022
1023
1022
1023
1023
1022
1022
1023
1023
1022
580
0
0
135
1003
0
457
1022
1022
1023
1022
1022
1022
1022
1022
1022
1023
1022
1023
1022
586
0
0
0
903
0
393
1022
1022
1022
1022
1022
1023
1022
1023
1022
1023
1022
1022
1022
627
0
0
97
977
0
322
1022
1022
1023
1022
1022
1023
1022
1023
1022
1023
1022
1022
1023
606
0
0
48
948
0
313
1022
1023
1023
1022
1023
1022
1023
1022
1022
1023
1022
1022
1022
611
0
0
54
951
0
285
1022
1022
1023
1022
1023
1022
1022
1022
1023
1023
1023
1023
1022
583
0
0
81
967
0
397
1022
1022
1022
1022
1022
1023
1022
1023
1022
1022
1022
1023
1023
649
0
0
62
954
0
483
1022
1022
1023
1022
1023
1023
1022
1023
1022
1023
1023
1022
1023
664
0
0
61
952
0
319
1022
1022
1023
1022
1023
1022
1022
1022
1022
1023
1023
1022
1023
643
0
0
0
917
0
214
1022
1022
1023
1022
1023
1022
1023
1022
1022
1022
1022
1022
1023
680
0
0
0
909
0
216
1022
1022
1023
1022
1023
1023
1022
1022
1022
1023
1022
1022
1023
688
0
0
0
878
0
222
1022
1023
1022
1022
1022
1022
1022
1023
1022
1023
1023
1023
1023
647
0
0
0
869
0
630
1023
1023
1022
1022
1022
1022
1023
1022
1022
1023
1023
1023
1022
625
0
0
0
879
0
296
1022
1022
1023
1022
1022
1022
1022
1023
1022
1022
1022
1023
1023
694
0
0
0
893
2
313
1022
1022
1023
1022
1023
1023
1022
1022
1023
1023
1023
1022
1023
733
0
0
0
870
5
217
1022
1022
1023
1022
1022
1022
1023
1023
1022
1022
1023
1023
1022
768
0
0
0
847
0
112
1008
1023
1023
1023
1022
1022
1023
1022
1022
1022
1023
1023
1023
728
0
0
0
814
0
0
854
1023
1023
1022
1022
1023
1023
1022
1022
1023
1022
1022
1022
697
0
0
0
856
60
215
1022
1022
1022
1022
1022
1022
1023
1023
1022
1022
1023
1023
1023
721
0
0
0
868
120
299
1022
1022
1023
1022
1022
1023
1022
1023
1023
1023
1022
1022
1022
752
0
0
0
861
110
220
1022
1023
1022
1022
1022
1023
1022
1023
1022
1023
1022
1022
1022
771
0
0
0
843
132
186
1022
1023
1023
1022
1022
1022
1022
1023
1022
1023
1023
1023
1023
809
0
0
0
818
121
0
628
1022
1023
1022
1023
1023
1022
1023
1022
1022
1022
1022
1023
799
0
0
0
823
145
59
982
1022
1023
1022
1022
1022
1022
1023
1022
1023
1023
1022
1022
793
0
0
0
808
184
75
989
1022
1022
1022
1023
1022
1023
1022
1022
1023
1023
1023
1023
746
0
0
0
810
227
108
1008
1022
1023
1023
1023
1023
1022
1023
1022
1023
1023
1022
1022
811
0
0
0
837
272
176
1022
1022
1023
1022
1023
1023
1022
1023
1022
1023
1023
1022
1022
861
0
0
0
809
284
131
1016
1022
1023
1022
1022
1022
1022
1022
1023
1023
1023
1022
1023
850
0
0
0
767
280
7
958
1022
1022
1022
1022
1023
1023
1023
1022
1022
1023
1022
1023
842
0
0
0
765
307
0
937
1023
1022
1022
1022
1022
1022
1022
1022
1023
1023
1022
1022
808
0
0
0
744
293
82
991
1023
1022
1022
1023
1023
1023
1022
1022
1023
1023
1022
1023
831
0
0
0
778
377
148
1020
1022
1023
1022
1023
1023
1022
1023
1022
1023
1022
1023
1023
846
0
0
0
775
401
142
1018
1022
1023
1022
1023
1023
1022
1023
1022
1023
1022
1022
1022
857
0
0
0
755
389
71
984
1023
1023
1022
1022
1023
1023
1022
1022
1023
1023
1023
1023
881
0
0
0
736
405
166
1021
1022
1023
1022
1022
1023
1023
1023
1022
1023
1022
1022
1023
1021
0
0
0
682
364
0
860
1022
1023
1022
1022
1022
1023
1022
1022
1023
1023
1022
1023
869
0
0
0
700
422
0
896
1023
1022
1022
1022
1022
1023
1023
1023
1022
1023
1022
1023
877
0
0
0
708
471
73
986
1022
1023
1022
1023
1023
1022
1023
1022
1023
1023
1023
1022
894
0
0
0
712
502
81
990
1022
1023
1022
1023
1022
1022
1023
1022
1022
1022
1022
1023
891
0
0
0
719
550
180
1022
1023
1023
1022
1022
1022
1022
1022
1023
1023
1023
1023
1022
1021
126
0
0
681
466
0
792
1022
1022
1022
1023
1022
1023
1023
1022
1022
1023
1023
1022
851
0
0
0
676
543
169
1022
1023
1023
1022
1022
1022
1022
1022
1022
1023
1022
1023
1023
992
3
0
0
634
542
37
968
1022
1023
1022
1022
1023
1022
1023
1023
1023
1022
1022
1023
920
0
0
0
675
616
92
996
1022
1023
1022
1022
1022
1022
1023
1023
1023
1023
1022
1023
921
0
0
0
649
619
221
1022
1022
1023
1022
1023
1022
1022
1023
1022
1022
1022
1022
1023
724
41
0
0
705
700
275
1022
1022
1023
1022
1023
1022
1022
1022
1023
1023
1022
1023
1022
963
34
0
0
635
668
141
1017
1023
1022
1022
1023
1023
1022
1022
1022
1022
1022
1023
1022
1007
56
0
0
583
622
26
960
1023
1022
1022
1023
1023
1023
1023
1023
1023
1023
1023
1022
969
75
0
0
559
655
0
888
1023
1022
1022
1022
1022
1022
1023
1022
1022
1022
1022
1023
960
87
0
0
575
688
11
958
1022
1023
1022
1023
1022
1022
1022
1022
1023
1023
1022
1023
962
0
0
0
792
1018
569
1022
1022
1023
1022
1023
1023
1022
1023
1022
1022
1022
1023
1023
1022
216
0
0
613
807
156
1020
1022
1022
1022
1022
1022
1023
1022
1023
1023
1023
1022
1022
1021
165
0
0
537
778
0
944
1023
1022
1022
1023
1022
1022
1022
1022
1022
1023
1022
1022
1021
171
0
0
519
751
0
884
1023
1023
1022
1022
1023
1023
1022
1022
1023
1023
1023
1022
1020
189
0
0
528
793
0
910
1023
1022
1022
1022
1022
1022
1023
1022
1023
1022
1022
1023
1013
187
0
0
440
801
0
912
1022
1022
1022
1022
1022
1023
1023
1022
1023
1022
1022
1023
1022
239
0
0
536
886
32
964
1022
1023
1022
1023
1023
1022
1023
1023
1023
1022
1022
1023
1022
233
0
0
535
960
0
938
1022
1023
1022
1022
1022
1022
1022
1022
1023
1022
1022
1022
1022
292
0
0
507
938
0
798
1022
1022
1022
1022
1023
1022
1023
1023
1023
1022
1023
1022
1022
288
0
0
504
1020
0
911
1022
1023
1022
1023
1023
1023
1022
1023
1023
1023
1022
1023
1022
329
0
0
245
743
0
756
1022
1023
1022
1022
1023
1022
1023
1022
1022
1022
1022
1023
1022
278
0
0
443
1016
0
856
1022
1023
1022
1022
1022
1022
1023
1023
1023
1022
1022
1023
1022
285
0
0
471
1022
0
823
1022
1023
1022
1023
1023
1022
1022
1022
1023
1022
1023
1022
1022
328
0
0
487
1022
0
794
1023
1022
1023
1022
1023
1022
1022
1022
1023
1022
1022
1022
1022
344
0
0
463
1022
0
753
1022
1022
1022
1022
1023
1022
1022
1022
1023
1022
1022
1022
1022
357
0
0
443
1022
0
785
1023
1023
1022
1022
1022
1022
1022
1022
1023
1023
1022
1022
1022
360
0
0
419
1022
0
650
1022
1023
1022
1022
1023
1022
1023
1022
1022
1023
1022
1023
1022
333
0
0
420
1022
0
669
1022
1023
1022
1023
1022
1022
1023
1022
1023
1022
1022
1023
1022
359
0
0
408
1022
0
668
1022
1023
1022
1022
1022
1023
1022
1022
1023
1022
1022
1023
1022
380
0
0
391
1022
0
670
1022
1022
1023
1023
1022
1023
1022
1023
1023
1023
1022
1022
1022
404
0
0
399
1022
0
903
1022
1023
1022
1022
1023
1022
1023
1023
1023
1023
1022
1023
1022
379
0
0
377
1022
0
659
1023
1022
1023
1022
1023
1022
1022
1022
1023
1023
1022
1023
1022
450
0
0
355
1022
0
556
1022
1023
1023
1023
1023
1022
1023
1022
1023
1022
1022
1023
1022
391
0
0
372
1022
0
583
1022
1023
1022
1022
1022
1022
1023
1023
1022
1023
1022
1022
1022
407
0
0
346
1022
0
573
1022
1022
1022
1023
1023
1022
1023
1022
1023
1023
1022
1023
1022
435
0
0
350
1022
0
463
1022
1023
1023
1023
1023
1022
1023
1022
1022
1023
1022
1022
1022
446
0
0
327
1022
0
600
1023
1022
1022
1022
1022
1022
1022
1022
1023
1022
1022
1023
1022
444
0
0
329
1022
0
575
1023
1023
1022
1023
1022
1022
1023
1023
1023
1022
1022
1022
1022
462
0
0
302
1022
0
526
1022
1023
1022
1023
1023
1022
1023
1022
1023
1022
1022
1023
1022
484
0
0
289
1022
0
492
1022
1022
1023
1022
1022
1022
1023
1022
1023
1023
1022
1023
1022
447
0
0
286
1022
0
228
1022
1022
1023
1022
1023
1023
1022
1023
1023
1022
1023
1022
1022
471
0
0
303
1022
0
662
1022
1023
1023
1023
1023
1023
1022
1022
1023
1022
1023
1023
1022
505
0
0
291
1022
0
620
1022
1023
1022
1022
1022
1023
1022
1022
1022
1022
1023
1022
1022
482
0
0
257
1022
0
498
1022
1022
1023
1022
1022
1023
1022
1023
1023
1023
1023
1022
1022
491
0
0
217
1022
0
504
1022
1023
1022
1023
1022
1022
1023
1022
1023
1022
1022
1023
1022
491
0
0
205
1022
0
579
1022
1023
1023
1022
1022
1022
1023
1023
1023
1022
1022
1023
1022
510
0
0
232
1022
0
464
1022
1022
1023
1022
1022
1022
1023
1022
1023
1023
1022
1023
1022
502
0
0
215
1022
0
467
1022
1023
1022
1022
1022
1022
1023
1022
1023
1023
1022
1023
1022
482
0
0
188
1021
0
592
1022
1023
1022
1022
1023
1022
1023
1022
1022
1022
1023
1022
1022
492
0
0
205
1022
0
743
1022
1023
1022
1023
1022
1022
1022
1023
1023
1022
1023
1023
1022
524
0
0
171
1018
0
941
1022
1023
1023
1022
1023
1022
1023
1023
1022
1023
1022
1022
1022
516
0
0
87
966
560
1022
1022
1023
1022
1023
1022
1022
1023
1023
1023
1023
1022
1023
1022
526
0
0
63
941
0
321
1022
1023
1022
1022
1022
1023
1023
1023
1022
1023
1023
1022
1022
428
0
0
48
943
741
1023
1023
1022
1022
1023
1022
1023
1022
1022
1023
1023
1023
1022
1022
416
0
0
102
964
499
1022
1023
1022
1023
1023
1022
1023
1022
1022
1022
1023
1023
1022
1022
516
0
0
79
947
0
458
1022
1022
1022
1022
1022
1023
1022
1023
1022
1023
1022
1023
1023
543
0
0
75
953
0
462
1022
1023
1023
1023
1022
1022
1023
1022
1023
1023
1022
1022
1022
553
0
0
18
933
0
417
1022
1023
1023
1022
1022
1022
1023
1022
1023
1023
1022
1023
1022
875
0
0
42
950
0
189
1022
1023
1022
1022
1022
1022
1023
1022
1022
1022
1023
1022
1023
558
0
0
57
958
0
285
1022
1023
1023
1022
1022
1022
1023
1023
1023
1023
1023
1022
1022
604
0
0
67
962
0
362
1022
1022
1023
1022
1022
1023
1022
1022
1023
1022
1022
1022
1022
617
0
0
68
961
0
396
1023
1023
1023
1022
1023
1022
1023
1023
1023
1023
1022
1023
1022
627
0
0
63
957
0
325
1022
1023
1023
1023
1023
1022
1023
1022
1023
1023
1022
1023
1022
607
0
0
66
960
0
48
975
1023
1023
1022
1023
1022
1023
1022
1023
1023
1022
1022
1022
572
0
0
0
906
0
280
1022
1022
1023
1022
1022
1023
1022
1022
1023
1022
1022
1022
1023
656
0
0
0
910
0
191
1022
1022
1022
1022
1022
1023
1022
1023
1022
1023
1022
1023
1022
628
0
0
0
928
0
248
1022
1023
1022
1022
1022
1022
1023
1023
1023
1023
1022
1023
1022
659
0
0
8
935
13
297
1022
1023
1022
1022
1022
1022
1023
1023
1022
1023
1022
1023
1022
463
0
0
281
1022
223
637
1022
1023
1022
1023
1023
1022
1023
1022
1023
1023
1022
1023
1023
803
0
0
0
896
3
198
1022
1023
1022
1022
1022
1022
1023
1022
1023
1023
1022
1023
1022
667
0
0
0
867
150
109
1006
1023
1022
1023
1022
1022
1023
1022
1023
1023
1022
1022
1023
703
0
0
0
882
40
193
1022
1022
1023
1022
1022
1022
1022
1022
1023
1022
1023
1022
1023
700
0
0
0
869
122
185
1022
1022
1023
1023
1023
1022
1022
1023
1022
1022
1023
1023
1023
720
0
0
0
819
321
135
1017
1023
1022
1023
1023
1022
1023
1022
1023
1023
1022
1023
1022
754
0
0
0
878
137
215
1022
1023
1022
1022
1023
1022
1023
1023
1022
1022
1022
1023
1023
771
0
0
0
845
157
172
1022
1023
1023
1022
1022
1022
1022
1023
1022
1023
1023
1022
1023
777
0
0
0
824
140
126
1015
1023
1023
1023
1023
1022
1023
1023
1022
1023
1022
1023
1022
751
0
0
0
818
171
133
1017
1022
1023
1022
1022
1022
1022
1022
1022
1022
1022
1023
1022
753
0
0
0
591
59
71
986
1022
1023
1022
1022
1022
1022
1022
1022
1022
1023
1022
1023
819
0
0
0
819
244
192
1022
1023
1022
1022
1022
1022
1023
1022
1023
1023
1022
1023
1022
824
0
0
0
817
261
141
1019
1022
1023
1023
1023
1022
1023
1022
1022
1022
1022
1023
1023
809
0
0
0
796
274
142
1019
1023
1022
1022
1022
1023
1022
1023
1023
1022
1022
1022
1022
829
0
0
0
786
289
55
976
1022
1023
1023
1022
1023
1022
1023
1022
1023
1022
1023
1022
825
0
0
0
780
378
196
1022
1023
1022
1023
1022
1022
1022
1022
1023
1023
1023
1023
1022
853
0
0
0
762
315
110
1006
1023
1022
1023
1022
1023
1023
1023
1022
1022
1022
1022
1023
842
0
0
0
742
356
88
994
1023
1023
1023
1023
1022
1023
1022
1023
1023
1022
1023
1023
836
0
0
0
754
385
98
1000
1023
1022
1023
1023
1022
1023
1023
1023
1023
1022
1023
1022
896
0
0
0
721
347
0
903
1022
1022
1022
1022
1022
1023
1022
1023
1022
1022
1022
1022
867
0
0
0
685
346
239
1022
1022
1022
1022
1023
1022
1022
1023
1023
1022
1022
1023
1023
839
0
0
0
657
370
0
880
1022
1022
1023
1023
1022
1022
1023
1023
1022
1022
1022
1022
855
0
0
0
715
472
71
984
1022
1023
1022
1023
1022
1022
1023
1022
1022
1022
1022
1023
939
0
0
0
689
467
0
945
1023
1023
1022
1022
1022
1023
1023
1023
1023
1022
1023
1022
915
0
0
0
667
475
0
873
1023
1023
1023
1023
1022
1023
1023
1023
1023
1022
1023
1023
926
0
0
0
664
376
0
736
1022
1023
1022
1022
1022
1023
1022
1022
1023
1022
1022
1022
899
0
0
0
665
540
0
933
1022
1023
1022
1022
1023
1022
1023
1023
1023
1023
1022
1023
913
0
0
0
656
571
0
904
1023
1023
1022
1022
1023
1022
1023
1022
1023
1023
1022
1023
936
23
0
0
667
616
0
867
1022
1023
1022
1023
1023
1022
1023
1023
1022
1023
1023
1023
1007
26
0
0
647
622
0
872
1023
1023
1022
1023
1022
1023
1023
1023
1023
1022
1023
1023
971
42
0
0
637
628
0
569
1023
1023
1023
1022
1023
1023
1022
1023
1023
1022
1023
1023
995
87
0
0
617
663
0
804
1023
1022
1022
1022
1022
1023
1023
1022
1023
1022
1023
1022
1019
101
0
0
625
697
0
888
1023
1023
1023
1022
1022
1023
1023
1022
1022
1022
1023
1022
976
73
0
0
603
713
0
878
1023
1022
1023
1022
1022
1023
1022
1023
1023
1022
1023
1022
997
132
0
0
617
782
0
864
1022
1023
1023
1023
1022
1023
1023
1022
1022
1022
1022
1023
1022
174
0
0
595
787
0
835
1023
1023
1022
1023
1022
1023
1023
1023
1023
1022
1022
1022
1022
175
0
0
564
774
0
783
1023
1023
1023
1022
1022
1023
1022
1022
1023
1022
1022
1023
1019
179
0
0
556
820
0
813
1022
1023
1022
1023
1022
1023
1022
1023
1022
1022
1022
1023
1021
199
0
0
517
820
0
755
1022
1022
1022
1022
1023
1022
1023
1022
1022
1023
1022
1023
1022
227
0
0
541
864
0
801
1022
1023
1022
1023
1022
1023
1023
1023
1023
1022
1022
1023
1022
250
0
0
534
891
0
829
1022
1022
1022
1022
1023
1023
1022
1023
1022
1022
1022
1023
1022
282
0
0
522
939
0
859
1022
1023
1022
1022
1022
1023
1023
1023
1023
1022
1023
1022
1022
307
0
0
504
943
0
806
1022
1023
1022
1022
1022
1022
1022
1022
1023
1022
1023
1023
1022
291
0
0
463
952
0
793
1023
1023
1022
1022
1022
1023
1022
1023
1022
1022
1023
1022
1022
295
0
0
481
1021
0
783
1023
1022
1022
1022
1022
1023
1022
1022
1022
1022
1022
1023
1022
325
0
0
503
1022
0
774
1023
1023
1022
1022
1023
1022
1023
1023
1023
1023
1022
1022
1022
352
0
0
482
1022
0
683
1022
1022
1022
1023
1022
1022
1023
1023
1023
1022
1023
1023
1022
362
0
0
442
1022
0
650
1023
1023
1023
1022
1022
1023
1022
1023
1023
1022
1022
1023
1022
476
0
0
434
1022
0
565
1022
1023
1022
1022
1022
1022
1023
1022
1023
1023
1023
1023
1022
326
0
0
445
1022
0
757
1022
1023
1023
1022
1022
1023
1023
1022
1023
1023
1022
1023
1022
391
0
0
446
1022
0
713
1022
1023
1022
1022
1022
1023
1023
1022
1022
1022
1022
1023
1022
374
0
0
418
1022
0
726
1023
1023
1022
1023
1022
1023
1022
1022
1023
1023
1023
1022
1022
396
0
0
411
1022
0
649
1022
1023
1023
1022
1023
1022
1023
1022
1022
1022
1023
1022
864
415
0
0
384
1022
0
378
1022
1022
1023
1022
1022
1022
1023
1023
1023
1022
1022
1023
1022
326
0
0
355
1022
0
648
1023
1023
1023
1023
1022
1022
1023
1023
1023
1022
1022
1022
1022
402
0
0
396
1022
0
679
1022
1023
1023
1022
1022
1022
1022
1023
1023
1022
1022
1023
1022
388
0
0
374
1022
0
691
1023
1023
1023
1023
1023
1022
1023
1022
1022
1023
1022
1023
1022
434
0
0
368
1022
0
600
1022
1022
1022
1022
1023
1022
1023
1023
1023
1022
1022
1023
1022
222
0
0
583
1022
0
907
1022
1022
1023
1023
1023
1023
1023
1022
1023
1022
1022
1023
1022
504
0
0
359
1022
0
594
1023
1023
1022
1023
1022
1023
1023
1023
1023
1022
1022
1023
1022
422
0
0
296
1022
0
548
1022
1023
1022
1023
1022
1023
1023
1022
1023
1022
1022
1023
1022
449
0
0
327
1022
0
636
1022
1023
1022
1023
1022
1022
1023
1023
1022
1023
1022
1023
1022
487
0
0
293
1022
0
494
1022
1023
1022
1023
1022
1022
1023
1023
1022
1022
1023
1023
1022
451
0
0
182
1020
0
431
1023
1023
1022
1022
1022
1023
1023
1023
1023
1022
1022
1023
1022
489
0
0
248
1022
0
487
1022
1022
1022
1022
1023
1022
1022
1023
1023
1022
1022
1023
1022
499
0
0
227
1022
0
383
1022
1023
1023
1022
1022
1022
1023
1022
1023
1023
1022
1023
1022
465
0
0
241
1022
0
506
1022
1023
1023
1023
1022
1022
1023
1022
1023
1022
1023
1023
1022
513
0
0
227
1022
0
486
1022
1023
1023
1022
1023
1023
1022
1022
1023
1022
1022
1022
1022
509
0
0
0
899
0
398
1022
1023
1023
1023
1022
1023
1023
1022
1022
1023
1022
1023
1022
526
0
0
233
1022
0
486
1023
1023
1022
1022
1022
1022
1022
1023
1022
1023
1022
1023
1022
543
0
0
178
1020
0
415
1022
1022
1022
1023
1022
1022
1023
1023
1023
1022
1022
1023
1022
526
0
0
172
1019
0
410
1022
1023
1022
1023
1022
1022
1022
1022
1023
1022
1022
1023
1022
499
0
0
210
1022
0
521
1022
1023
1022
1023
1022
1022
1023
1023
1023
1022
1022
1023
1023
538
0
0
189
1021
0
542
1022
1023
1022
1023
1022
1023
1023
1023
1022
1023
1022
1022
1022
578
0
0
191
1021
0
469
1022
1023
1023
1023
1022
1022
1022
1022
1023
1023
1022
1023
1022
582
0
0
127
998
0
339
1022
1023
1022
1022
1023
1022
1023
1022
1022
1023
1022
1023
1022
562
0
0
108
985
0
333
1022
1023
1022
1023
1022
1022
1023
1023
1022
1022
1022
1023
1022
569
0
0
111
989
0
319
1022
1022
1022
1023
1022
1022
1023
1022
1022
1022
1022
1023
1022
559
0
0
128
1001
0
594
1023
1023
1023
1023
1022
1022
1023
1022
1023
1023
1022
1023
1023
588
0
0
139
1005
0
383
1022
1023
1022
1022
1023
1022
1023
1022
1023
1022
1022
1023
1022
636
0
0
103
980
0
350
1023
1023
1022
1022
1023
1022
1023
1022
1023
1023
1022
1023
1023
642
0
0
60
955
0
304
1022
1023
1022
1022
1023
1022
1023
1022
1022
1022
1022
1023
1022
629
0
0
51
951
0
290
1022
1023
1023
1023
1022
1022
1023
1023
1023
1022
1022
1023
1022
613
0
0
76
964
0
251
1022
1022
1022
1022
1023
1022
1023
1023
1023
1022
1022
1023
1022
647
0
0
82
968
0
383
1022
1023
1023
1023
1022
1022
1022
1022
1023
1022
1022
1023
1022
655
0
0
76
964
0
363
1022
1023
1022
1022
1023
1022
1022
1023
1023
1023
1022
1023
1023
661
0
0
32
941
0
275
1022
1023
1023
1023
1023
1022
1023
1022
1023
1023
1023
1023
1022
687
0
0
0
904
0
262
1022
1023
1022
1023
1023
1022
1022
1022
1023
1022
1023
1022
1022
669
0
0
0
896
0
0
871
1023
1022
1022
1022
1022
1023
1023
1023
1022
1022
1023
1023
676
0
0
0
905
0
241
1022
1023
1023
1022
1022
1022
1023
1023
1023
1022
1022
1023
1022
686
0
0
0
909
32
307
1022
1022
1022
1023
1022
1022
1022
1022
1022
1023
1022
1023
1023
711
0
0
0
905
39
308
1022
1023
1022
1022
1023
1022
1023
1022
1023
1023
1022
1023
1022
737
0
0
0
875
49
229
1022
1023
1023
1023
1023
1022
1023
1023
1022
1023
1022
1023
1022
728
0
0
0
852
47
187
1022
1023
1022
1022
1022
1022
1022
1023
1023
1023
1022
1023
1022
724
0
0
0
847
60
152
1020
1023
1022
1022
1022
1022
1023
1023
1023
1022
1022
1023
1023
725
0
0
0
867
131
131
1016
1023
1023
1022
1022
1022
1023
1023
1023
1022
1022
1023
1023
717
0
0
0
843
129
246
1022
1023
1023
1023
1022
1022
1023
1022
1023
1022
1022
1023
1023
773
0
0
0
829
139
97
1000
1023
1023
1022
1022
1023
1023
1023
1022
1022
1022
1023
1023
790
0
0
0
818
153
112
1009
1023
1023
1022
1023
1022
1022
1022
1023
1022
1022
1023
1023
787
0
0
0
814
193
137
1018
1023
1022
1022
1022
1022
1023
1022
1022
1023
1022
1022
1022
800
0
0
0
802
190
189
1022
1023
1023
1023
1022
1022
1023
1022
1023
1023
1022
1023
1023
839
0
0
0
783
254
159
1021
1023
1022
1023
1022
1022
1023
1023
1023
1022
1022
1023
1023
824
0
0
0
775
216
17
961
1023
1023
1023
1023
1022
1023
1022
1023
1023
1022
1022
1023
818
0
0
0
752
242
113
1009
1023
1023
1023
1022
1022
1023
1023
1022
1022
1023
1023
1023
837
0
0
0
767
290
135
1017
1023
1023
1022
1022
1022
1022
1023
1023
1022
1023
1023
1023
858
0
0
0
750
300
0
950
1023
1023
1022
1022
1023
1023
1023
1023
1023
1022
1023
1022
1022
0
0
0
750
297
0
920
1023
1023
1022
1023
1022
1023
1022
1022
1022
1022
1023
1023
881
0
0
0
727
335
22
967
1023
1022
1022
1022
1023
1023
1023
1023
1022
1022
1023
1022
874
0
0
0
709
352
7
960
1022
1022
1023
1022
1022
1023
1023
1022
1022
1022
1023
1022
883
0
0
0
699
368
5
958
1023
1022
1022
1022
1022
1023
1023
1023
1022
1022
1023
1023
902
0
0
0
692
387
0
938
1022
1023
1022
1023
1022
1023
1023
1023
1023
1023
1023
1023
772
147
0
0
658
331
0
741
1023
1022
1022
1023
1022
1023
1023
1022
1023
1022
1023
1022
728
0
0
0
651
439
455
1022
1023
1023
1023
1023
1022
1023
1022
1022
1022
1022
1023
1022
929
0
0
0
671
444
606
1022
1023
1023
1022
1022
1022
1022
1023
1023
1023
1022
1023
1022
868
0
0
0
582
535
1016
1022
1023
1023
1022
1023
1022
1023
1023
1022
1023
1022
1023
1022
789
0
0
0
519
403
472
1022
1023
1023
1022
1023
1022
1023
1023
1023
1023
1022
1023
1022
803
0
0
0
796
1022
1022
1022
1023
1022
1023
1023
1022
1023
1022
1023
1023
1023
1023
1023
934
0
0
0
592
527
185
1021
1023
1022
1022
1022
1022
1023
1022
1023
1022
1022
1023
1023
872
0
0
0
584
556
3
944
1023
1023
1023
1022
1022
1023
1023
1023
1022
1022
1023
1023
953
32
0
0
570
563
0
846
1023
1022
1023
1022
1022
1022
1022
1022
1023
1022
1023
1022
962
35
0
0
580
593
0
827
1023
1022
1022
1022
1023
1022
1023
1023
1023
1022
1022
1023
971
61
0
0
553
647
0
780
1023
1022
1023
1023
1022
1022
1023
1022
1022
1023
1023
1022
964
91
0
0
615
728
0
870
1023
1023
1023
1022
1023
1023
1023
1023
1023
1022
1023
1023
1021
132
0
0
616
769
0
844
1023
1023
1022
1023
1023
1023
1022
1023
1023
1022
1023
1022
992
129
0
0
578
755
0
816
1023
1022
1023
1023
1022
1023
1023
1023
1022
1023
1023
1023
1021
191
0
0
567
774
0
753
1023
1023
1022
1023
1022
1023
1022
1023
1023
1022
1023
1023
1022
215
0
0
367
655
0
634
1023
1022
1022
1023
1022
1023
1022
1023
1022
1022
1023
1023
1021
207
0
0
554
831
0
728
1023
1022
1022
1022
1022
1023
1023
1023
1023
1023
1023
1022
1020
211
0
0
570
917
0
819
1023
1023
1022
1023
1022
1023
1022
1022
1023
1022
1023
1023
1022
276
0
0
570
950
0
785
1023
1022
1022
1022
1022
1023
1023
1023
1022
1022
1023
1022
1022
288
0
0
518
892
0
730
1023
1022
1022
1023
1023
1023
1022
1023
1022
1022
1023
1022
1022
325
0
0
494
1020
0
670
1023
1022
1022
1022
1023
1023
1023
1022
1023
1022
1023
1022
1022
318
0
0
487
1015
0
620
1023
1023
1023
1022
1022
1023
1022
1022
1023
1022
1023
1023
1021
274
0
0
495
1022
0
715
1023
1022
1022
1023
1022
1023
1023
1023
1023
1022
1023
1022
1022
312
0
0
500
1022
0
722
1023
1023
1023
1023
1022
1023
1023
1023
1022
1023
1023
1023
1022
355
0
0
480
1022
0
685
1023
1023
1022
1023
1022
1023
1023
1023
1023
1022
1023
1022
1022
348
0
0
470
1022
0
876
1023
1022
1023
1023
1023
1023
1022
1023
1023
1022
1023
1023
1022
351
0
0
412
1022
0
671
1023
1023
1022
1023
1022
1023
1023
1022
1023
1022
1023
1022
1022
354
0
0
433
1022
0
727
1023
1022
1022
1023
1022
1023
1022
1023
1022
1022
1023
1023
1022
320
0
0
439
1022
0
766
