0
0
0
0
450
1022
1022
1022
1022
1022
1022
0
0
0
0
27
0
408
505
476
0
0
0
0
495
1022
1022
1022
1022
1022
1022
0
0
0
0
29
0
401
496
484
0
0
0
0
505
1022
1022
1022
1023
1022
1023
0
0
0
0
18
0
379
488
502
0
0
0
0
524
1022
1022
1022
1022
1022
1022
0
0
0
0
37
0
406
511
486
0
0
0
0
519
1022
1023
1023
1022
1022
1022
0
0
0
0
47
5
397
527
493
0
0
0
0
565
1022
1022
1023
1022
1022
1022
0
0
0
0
26
0
375
492
471
0
0
0
0
595
1022
1022
1022
1022
1022
1022
0
0
0
0
27
0
412
493
473
0
0
0
0
606
1022
1022
1022
1023
1022
1022
0
0
0
0
26
0
415
505
469
0
0
0
0
632
1022
1022
1022
1022
1022
1022
0
0
0
0
19
0
430
521
500
0
0
0
0
659
1022
1022
1023
1022
1022
1023
0
0
0
0
50
0
432
491
472
0
0
0
0
682
1022
1023
1022
1022
1022
1022
0
0
0
0
0
0
410
482
467
0
0
0
0
686
1022
1022
1022
1022
1022
1022
0
0
0
0
21
0
412
498
475
0
0
0
0
692
1022
1022
1022
1023
1022
1022
0
0
0
0
38
0
429
507
475
0
0
0
0
737
1022
1022
1022
1022
1022
1023
0
0
0
0
71
0
449
512
471
0
0
0
0
772
1022
1023
1022
1023
1022
1022
0
0
0
0
8
0
417
499
476
0
0
0
0
771
1022
1022
1022
1022
1022
1022
0
0
0
0
45
0
443
504
470
0
0
0
0
806
1022
1022
1022
1023
1022
1022
0
0
0
0
16
0
423
494
470
0
0
0
0
854
1022
1022
1022
1022
1022
1023
0
0
0
0
64
0
452
510
469
0
0
0
0
843
1022
1022
1022
1022
1022
1022
0
0
0
0
28
0
446
501
475
0
0
0
0
899
1022
1022
1022
1023
1022
1022
0
0
0
0
50
0
452
488
486
0
0
0
0
884
1022
1022
1022
1022
1022
1022
0
0
0
0
18
0
436
487
474
0
0
0
0
922
1022
1022
1022
1022
1022
1022
0
0
0
0
0
0
442
498
468
0
0
0
0
947
1022
1022
1023
1022
1022
1022
0
0
0
0
30
0
449
501
483
0
0
0
0
975
1022
1022
1022
1023
1022
1022
0
0
0
0
30
0
454
508
486
0
0
0
0
974
1022
1022
1022
1022
1022
1022
0
0
0
0
31
0
455
511
487
0
0
0
0
996
1022
1022
1022
1023
1022
1023
0
0
0
0
31
0
457
502
476
0
0
0
0
1020
1022
1022
1022
1022
1022
1022
0
0
0
0
8
0
452
490
483
0
0
0
0
1017
1022
1022
1022
1022
1023
1022
0
0
0
0
26
0
457
490
482
0
0
0
0
1019
1022
1022
1022
1022
1022
1022
0
0
0
0
41
0
464
515
499
0
0
0
0
1022
1022
1022
1022
1022
1022
1022
0
0
0
0
55
0
477
512
479
0
0
0
0
1022
1022
1023
1022
1023
1022
1022
0
0
0
0
0
0
460
489
478
0
0
0
0
1022
1022
1022
1022
1023
1022
1022
0
0
0
0
15
0
440
509
512
0
0
0
0
1022
1022
1023
1022
1023
1022
1022
0
0
0
0
11
0
452
483
477
0
0
0
0
1022
1022
1022
1022
1022
1022
1023
0
0
0
0
28
0
441
504
488
0
0
0
0
1022
1022
1023
1022
1023
1022
1022
0
0
0
0
12
0
475
486
472
0
0
0
0
1022
1022
1022
1022
1023
1022
1023
0
0
0
0
6
0
468
498
490
0
0
0
0
1022
1023
1022
1022
1022
1022
1022
0
0
0
0
18
0
472
504
484
0
0
0
0
1022
1022
1022
1022
1023
1022
1022
0
0
0
0
22
0
452
476
487
0
0
0
0
1022
1022
1022
1022
1023
1022
1022
0
0
0
0
11
0
480
465
474
0
0
0
0
1022
1022
1022
1022
1022
1022
1022
0
0
0
0
39
19
484
509
511
0
0
0
0
1022
1022
1022
1022
1022
1022
1022
0
0
0
0
9
0
472
503
496
0
0
0
0
1022
1022
1023
1022
1022
1022
1022
0
0
0
0
11
0
476
496
471
0
0
0
0
1022
1022
1022
1022
1022
1022
1022
0
0
0
0
17
0
480
494
478
0
0
0
0
1022
1022
1022
1022
1022
1022
1022
0
0
0
0
26
5
485
499
502
0
0
0
0
1022
1022
1022
1022
1022
1022
1022
0
0
0
0
27
42
471
496
489
0
0
0
0
1022
1022
1022
1022
1022
1022
1022
0
0
0
0
33
60
498
512
497
0
0
0
0
1022
1022
1022
1022
1023
1022
1022
0
0
0
0
0
68
490
496
491
0
0
0
0
1022
1023
1022
1022
1022
1022
1022
0
0
0
0
1
65
437
504
486
0
0
0
0
1022
1022
1022
1022
1023
1022
1022
0
0
0
0
32
30
492
508
480
0
0
0
0
1022
1022
1023
1022
1023
1022
1022
0
0
0
0
4
69
474
508
508
0
0
0
0
1022
1022
1023
1022
1022
1022
1022
0
0
0
0
0
59
463
471
471
0
0
0
0
1022
1022
1022
1022
1022
1022
1022
0
0
0
0
0
62
462
483
486
0
0
0
0
1022
1022
1022
1022
1023
1022
1022
0
0
0
0
13
76
483
503
492
0
0
0
0
1022
1022
1022
1022
1023
1022
1022
0
0
0
0
3
82
481
500
500
0
0
0
0
1022
1023
1022
1022
1022
1022
1022
0
0
0
0
1
94
479
496
484
0
0
0
0
1022
1022
1022
1022
1022
1022
1022
0
0
0
0
1
92
470
486
482
0
0
0
0
1022
1022
1022
1022
1022
1022
1022
0
0
0
0
4
101
489
509
501
0
0
0
0
1022
1022
1022
1022
1022
1022
1022
0
0
0
0
0
92
472
497
486
0
0
0
0
1022
1022
1022
1022
1023
1022
1021
0
0
0
0
10
75
477
490
496
0
0
0
0
1022
1022
1022
1022
1022
1022
996
0
0
0
0
1
114
481
495
497
0
0
0
0
1022
1022
1023
1022
1022
1022
881
0
0
0
0
9
134
455
508
504
0
0
0
0
1022
1022
1022
1022
1022
1022
839
0
0
0
0
2
119
491
480
493
0
0
0
0
1022
1022
1022
1022
1022
1022
787
0
0
0
0
2
131
479
487
500
0
0
0
0
1022
1022
1022
1022
1023
1022
758
0
0
0
0
22
126
508
483
498
0
0
0
0
1022
1022
1022
1022
1022
1022
684
0
0
0
0
0
146
486
499
485
0
0
0
0
1022
1022
1022
1022
1023
1022
648
0
0
0
0
0
143
471
491
507
0
0
0
0
1022
1022
1023
1022
1022
1022
606
0
0
0
0
2
154
487
482
491
0
0
0
0
1022
1022
1022
1022
1022
1022
560
0
0
0
0
3
165
494
479
512
0
0
0
0
1022
1022
1022
1023
1022
1022
515
0
0
0
0
0
177
486
492
511
0
0
0
0
1022
1022
1022
1022
1022
1022
492
0
0
0
0
0
159
466
491
490
0
0
0
0
1022
1022
1022
1023
1022
1022
466
0
0
0
0
0
165
479
486
492
0
0
0
0
1022
1022
1022
1022
1022
1022
425
0
0
0
0
8
193
492
491
489
0
0
0
0
1022
1022
1022
1022
1022
1022
369
0
0
0
0
0
187
487
488
493
0
0
0
0
1022
1022
1022
1023
1023
1022
324
0
0
0
0
0
203
487
507
497
0
0
0
0
1022
1022
1022
1022
1022
1022
293
0
0
0
0
13
182
498
489
491
0
0
0
0
1022
1022
1022
1023
1022
1022
234
0
0
0
0
0
199
487
490
497
0
0
0
0
1022
1022
1022
1022
1022
1022
185
0
0
0
0
0
222
491
502
496
0
0
0
0
1022
1022
1022
1022
1022
1022
167
0
0
0
0
12
208
507
503
489
0
0
0
0
1022
1022
1022
1022
1022
1022
125
0
0
0
0
33
217
510
500
496
0
0
0
0
1022
1022
1022
1022
1022
1022
78
0
0
0
0
22
219
511
482
486
0
0
0
0
1022
1022
1022
1022
1022
1022
51
0
0
0
0
0
246
448
496
486
0
0
0
0
1022
1022
1022
1022
1022
1022
11
0
0
0
0
1
243
496
492
478
0
0
0
0
1022
1022
1022
1023
1022
1022
0
0
0
0
0
0
260
499
508
487
0
0
0
0
1022
1022
1022
1022
1022
1022
0
0
0
0
0
0
272
478
476
480
0
0
0
0
1022
1022
1022
1022
1022
1022
0
0
0
0
0
0
271
481
499
469
0
0
0
0
1022
1022
1022
1022
1022
1022
0
0
0
0
0
11
247
498
513
472
0
0
0
0
1022
1022
1022
1023
1022
1022
0
0
0
0
0
0
263
492
501
452
0
0
0
0
1022
1023
1022
1022
1023
1022
0
0
0
0
0
0
270
494
480
451
0
0
0
0
1022
1022
1022
1022
1022
1022
0
0
0
0
0
0
279
487
481
421
0
0
0
0
1022
1022
1022
1022
1022
1022
0
0
0
0
0
0
286
483
491
422
0
0
0
0
1022
1022
1022
1022
1022
1022
0
0
0
0
0
0
279
482
499
429
0
0
0
0
1022
1022
1022
1022
1022
1022
0
0
0
0
1
0
297
487
497
428
0
0
0
0
1022
1023
1022
1022
1022
1022
0
0
0
0
0
0
302
485
508
438
0
0
0
0
1022
1022
1022
1022
1023
1022
0
0
0
0
0
15
274
496
487
388
0
0
0
0
1022
1022
1022
1022
1023
1022
0
0
0
0
7
0
301
491
478
381
0
0
0
0
1022
1022
1022
1022
1023
1022
0
0
0
0
0
0
301
497
466
367
0
0
0
25
1022
1022
1022
1022
1022
1022
0
0
0
0
0
0
325
449
496
352
0
0
0
45
1022
1022
1022
1022
1022
1022
0
0
0
0
0
0
323
495
515
345
0
0
0
65
1022
1022
1022
1022
1022
1022
0
0
0
0
0
0
325
498
508
339
0
0
0
92
1022
1022
1022
1022
1022
1022
0
0
0
0
0
11
309
502
503
328
0
0
0
100
1022
1022
1022
1022
1022
1022
0
0
0
0
0
0
335
467
500
297
0
0
0
143
1022
1022
1022
1022
1022
1022
0
0
0
0
0
0
334
494
501
286
0
0
0
145
1022
1022
1022
1022
1022
1022
0
0
0
0
0
0
324
491
495
289
0
0
0
148
1022
1022
1022
1022
1022
1022
0
0
0
0
0
0
323
484
476
233
0
0
0
188
1022
1022
1022
1022
1023
1022
0
0
0
0
10
0
331
482
504
254
0
0
0
217
1022
1022
1022
1022
1022
1022
0
0
0
0
22
0
347
484
508
220
0
0
0
228
1022
1022
1022
1022
1022
1022
0
0
0
0
0
0
336
489
497
205
0
0
0
231
1022
1022
1022
1022
1023
1022
0
0
0
0
0
0
351
491
496
175
0
0
0
283
1022
1023
1022
1022
1022
1022
0
0
0
0
0
0
353
478
498
158
0
0
0
309
1022
1022
1022
1022
1022
1022
0
0
0
0
16
0
364
476
505
153
0
0
0
360
1022
1022
1022
1022
1022
1022
0
0
0
0
19
0
362
491
500
119
0
0
0
349
1022
1022
1022
1022
1022
1022
0
0
0
0
0
0
371
435
484
127
0
0
0
363
1022
1022
1022
1022
1022
1022
0
0
0
0
46
0
377
460
478
73
0
0
0
398
1022
1022
1022
1022
1022
1022
0
0
0
0
50
0
367
480
476
60
0
0
0
424
1022
1022
1022
1022
1022
1022
0
0
0
0
38
0
385
459
492
65
0
0
0
432
1022
1022
1022
1022
1022
1022
0
0
0
0
54
0
395
459
488
22
0
0
0
457
1022
1022
1022
1022
1022
1022
0
0
0
0
45
3
347
485
495
8
0
0
0
497
1022
1022
1022
1022
1022
1022
0
0
0
0
40
16
364
492
510
7
0
0
0
505
1022
1022
1022
1023
1022
1022
0
0
0
0
39
0
386
492
496
0
0
0
0
538
1023
1022
1022
1022
1022
1022
0
0
0
0
38
0
368
459
472
0
0
0
0
562
1022
1022
1022
1022
1022
1022
0
0
0
0
31
0
381
475
497
0
0
0
0
600
1022
1022
1022
1022
1022
1022
0
0
0
0
54
12
368
485
497
0
0
0
0
606
1022
1022
1022
1023
1022
1022
0
0
0
0
54
0
380
478
499
0
0
0
0
627
1022
1022
1022
1022
1022
1022
0
0
0
0
48
0
387
470
481
0
0
0
0
647
1022
1022
1023
1022
1022
1022
0
0
0
0
49
0
397
468
483
0
0
0
0
667
1022
1022
1022
1022
1022
1023
0
0
0
0
46
3
379
490
501
0
0
0
0
690
1022
1022
1022
1022
1022
1022
0
0
0
0
23
0
395
476
487
0
0
0
0
704
1022
1022
1022
1022
1022
1022
0
0
0
0
51
0
417
449
495
0
0
0
0
741
1022
1022
1022
1022
1022
1022
0
0
0
0
56
0
408
480
491
0
0
0
0
762
1022
1022
1022
1022
1023
1022
0
0
0
0
50
0
412
474
489
0
0
0
0
801
1022
1022
1022
1022
1022
1022
0
0
0
0
59
0
378
491
483
0
0
0
0
792
1022
1022
1022
1022
1022
1022
0
0
0
0
43
0
409
447
488
0
0
0
0
807
1022
1022
1022
1022
1022
1022
0
0
0
0
37
0
409
474
487
0
0
0
0
827
1022
1022
1022
1022
1023
1022
0
0
0
0
50
0
398
476
497
0
0
0
0
853
1022
1022
1022
1022
1023
1022
0
0
0
0
46
0
384
491
477
0
0
0
0
872
1022
1022
1022
1022
1022
1022
0
0
0
0
51
0
408
483
481
0
0
0
0
886
1022
1022
1022
1022
1022
1022
0
0
0
0
49
0
417
473
484
0
0
0
0
920
1022
1022
1022
1022
1023
1022
0
0
0
0
48
0
418
473
497
0
0
0
0
941
1022
1022
1022
1022
1022
1022
0
0
0
0
52
0
417
467
494
0
0
0
0
964
1022
1023
1022
1022
1022
1022
0
0
0
0
36
0
418
476
498
0
0
0
0
966
1022
1022
1022
1022
1022
1022
0
0
0
0
42
0
425
470
491
0
0
0
0
991
1022
1022
1022
1022
1023
1022
0
0
0
0
49
0
425
472
488
0
0
0
0
1010
1022
1022
1022
1022
1022
1022
0
0
0
0
53
0
441
443
503
0
0
0
0
1019
1022
1022
1022
1022
1022
1022
0
0
0
0
51
0
415
470
496
0
0
0
0
1021
1022
1022
1022
1022
1022
1023
0
0
0
0
47
0
435
474
489
0
0
0
0
1022
1022
1022
1022
1022
1022
1022
0
0
0
0
39
0
424
469
487
0
0
0
0
1022
1022
1022
1022
1022
1022
1022
0
0
0
0
46
0
425
471
488
0
0
0
0
1022
1022
1022
1022
1022
1022
1022
0
0
0
0
67
0
444
463
477
0
0
0
0
1022
1022
1022
1022
1022
1022
1022
0
0
0
0
44
14
417
473
496
0
0
0
0
1022
1022
1022
1022
1022
1022
1022
0
0
0
0
47
0
434
470
493
0
0
0
0
1022
1022
1022
1022
1022
1022
1022
0
0
0
0
53
0
421
485
495
0
0
0
0
1022
1022
1022
1022
1022
1022
1023
0
0
0
0
48
0
438
479
480
0
0
0
0
1022
1022
1022
1022
1022
1022
1023
0
0
0
0
47
0
440
481
484
0
0
0
0
1022
1022
1022
1022
1022
1022
1022
0
0
0
0
42
0
430
471
493
0
0
0
0
1023
1023
1022
1022
1022
1023
1022
0
0
0
0
48
0
433
479
496
0
0
0
0
1022
1022
1022
1022
1022
1022
1022
0
0
0
0
31
0
452
472
493
0
0
0
0
1022
1022
1022
1022
1022
1022
1022
0
0
0
0
43
0
444
476
490
0
0
0
0
1022
1022
1022
1022
1022
1022
1022
0
0
0
0
37
0
448
460
504
0
0
0
0
1022
1022
1022
1022
1022
1022
1022
0
0
0
0
33
0
437
478
504
0
0
0
0
1022
1022
1022
1022
1022
1022
1023
0
0
0
0
47
0
441
483
500
0
0
0
0
1022
1022
1022
1022
1022
1022
1022
0
0
0
0
47
0
447
474
491
0
0
0
0
1022
1022
1022
1022
1022
1022
1022
0
0
0
0
33
0
447
476
500
0
0
0
0
1023
1022
1022
1022
1022
1022
1022
0
0
0
0
37
0
444
471
500
0
0
0
0
1022
1022
1022
1022
1022
1022
1022
0
0
0
0
52
0
465
478
492
0
0
0
0
1022
1023
1022
1022
1022
1022
1022
0
0
0
0
30
21
451
470
491
0
0
0
0
1023
1022
1022
1022
1022
1022
1022
0
0
0
0
34
13
456
479
500
0
0
0
0
1022
1023
1022
1022
1022
1023
1022
0
0
0
0
44
60
418
473
489
0
0
0
0
1022
1022
1022
1022
1022
1022
1023
0
0
0
0
58
51
476
457
505
0
0
0
0
1022
1022
1022
1022
1022
1022
1022
0
0
0
0
35
70
460
505
523
0
0
0
0
1022
1022
1022
1022
1022
1022
1023
0
0
0
0
0
0
425
446
500
0
0
0
0
1022
1022
1022
1022
1022
1022
1022
0
0
0
0
32
60
498
508
531
0
0
0
0
1022
1022
1022
1022
1022
1022
1022
0
0
0
0
1
20
459
473
504
0
0
0
0
1022
1023
1022
1022
1022
1022
1022
0
0
0
0
56
57
484
515
513
0
0
0
0
1022
1023
1022
1022
1022
1022
1022
0
0
0
0
0
45
469
477
504
0
0
0
0
1022
1023
1022
1022
1022
1023
1022
0
0
0
0
51
67
479
499
519
0
0
0
0
1022
1022
1022
1022
1022
1023
1023
0
0
0
0
11
65
471
502
487
0
0
0
0
1022
1023
1022
1022
1022
1022
1022
0
0
0
0
0
49
449
460
490
0
0
0
0
1022
1022
1022
1022
1022
1022
1022
0
0
0
0
0
60
467
478
503
0
0
0
0
1022
1022
1022
1022
1022
1022
1022
0
0
0
0
9
74
470
485
513
0
0
0
0
1022
1023
1022
1022
1022
1022
1022
0
0
0
0
5
93
482
511
523
0
0
0
0
1022
1023
1022
1022
1022
1022
1022
0
0
0
0
47
122
484
501
488
0
0
0
0
1022
1023
1022
1022
1022
1022
1022
0
0
0
0
1
87
475
480
504
0
0
0
0
1022
1022
1022
1022
1022
1022
1021
0
0
0
0
44
91
482
494
516
0
0
0
0
1022
1022
1022
1022
1022
1022
1009
0
0
0
0
33
112
484
511
524
0
0
0
0
1022
1022
1022
1023
1022
1022
959
0
0
0
0
15
110
474
495
520
0
0
0
0
1022
1022
1022
1022
1022
1022
913
0
0
0
0
14
118
478
479
503
0
0
0
0
1022
1022
1022
1022
1022
1022
910
0
0
0
0
74
135
514
489
523
0
0
0
0
1022
1022
1022
1022
1022
1022
852
0
0
0
0
24
136
476
509
513
0
0
0
0
1022
1023
1022
1022
1023
1022
807
0
0
0
0
0
113
451
483
504
0
0
0
0
1022
1023
1022
1022
1022
1022
791
0
0
0
0
0
150
449
489
502
0
0
0
0
1022
1023
1022
1022
1023
1022
755
0
0
0
0
7
151
484
507
532
0
0
0
0
1022
1023
1022
1022
1023
1022
710
0
0
0
0
1
136
492
474
532
0
0
0
0
1022
1023
1022
1022
1022
1022
729
0
0
0
0
1
158
469
493
512
0
0
0
0
1022
1022
1022
1022
1022
1022
680
0
0
0
0
17
139
491
495
516
0
0
0
0
1022
1022
1023
1022
1022
1022
647
0
0
0
0
20
163
500
468
527
0
0
0
0
1022
1022
1022
1022
1022
1022
607
0
0
0
0
19
164
480
503
515
0
0
0
0
1022
1023
1022
1022
1022
1022
568
0
0
0
0
2
179
504
464
526
0
0
0
0
1023
1023
1022
1022
1023
1022
551
0
0
0
0
12
161
481
495
522
0
0
0
0
1023
1023
1022
1022
1022
1022
507
0
0
0
0
56
176
472
484
488
0
0
0
0
1022
1023
1022
1022
1022
1023
472
0
0
0
0
11
179
479
493
512
0
0
0
0
1022
1022
1022
1022
1023
1022
451
0
0
0
0
12
179
501
472
525
0
0
0
0
1022
1022
1022
1022
1022
1022
408
0
0
0
0
3
185
476
486
523
0
0
0
0
1023
1022
1022
1022
1022
1022
407
0
0
0
0
0
180
476
495
524
0
0
0
0
1022
1022
1022
1022
1022
1022
390
0
0
0
0
12
211
467
504
521
0
0
0
0
1022
1022
1022
1022
1022
1023
335
0
0
0
0
0
185
480
484
513
0
0
0
0
1022
1023
1022
1022
1022
1022
310
0
0
0
0
5
214
484
500
524
0
0
0
0
1022
1023
1022
1022
1022
1022
270
0
0
0
0
12
232
465
508
531
0
0
0
0
1022
1023
1022
1022
1023
1022
276
0
0
0
0
7
248
461
505
522
0
0
0
0
1022
1022
1022
1023
1023
1022
222
0
0
0
0
2
213
481
498
505
0
0
0
0
1022
1023
1022
1022
1023
1022
185
0
0
0
0
19
215
504
476
508
0
0
0
0
1022
1023
1022
1022
1023
1023
162
0
0
0
0
0
222
480
488
508
0
0
0
0
1022
1022
1022
1022
1022
1022
136
0
0
0
0
16
206
485
483
516
0
0
0
0
1022
1023
1022
1022
1023
1022
123
0
0
0
0
15
218
495
497
515
0
0
0
0
1022
1022
1022
1022
1022
1022
53
0
0
0
0
7
224
495
508
513
0
0
0
0
1022
1022
1022
1022
1023
1022
56
0
0
0
0
1
243
481
493
506
0
0
0
0
1022
1023
1022
1022
1022
1022
16
0
0
0
0
0
246
475
508
496
0
0
0
0
1022
1023
1022
1022
1023
1022
0
0
0
0
0
0
247
491
493
502
0
0
0
0
1022
1023
1022
1022
1023
1022
0
0
0
0
0
6
256
508
485
513
0
0
0
0
1022
1022
1022
1022
1023
1022
0
0
0
0
0
0
243
472
491
491
0
0
0
0
1022
1023
1022
1022
1023
1022
0
0
0
0
0
0
271
483
508
481
0
0
0
0
1022
1023
1022
1022
1023
1022
0
0
0
0
0
16
260
508
480
484
0
0
0
0
1022
1023
1022
1022
1022
1022
0
0
0
0
0
0
281
489
511
494
0
0
0
0
1022
1022
1022
1022
1022
1022
0
0
0
0
0
0
253
479
488
469
0
0
0
0
1022
1023
1022
1022
1022
1022
0
0
0
0
0
0
269
474
491
455
0
0
0
0
1022
1023
1022
1022
1022
1023
0
0
0
0
0
0
272
485
496
456
0
0
0
0
1022
1023
1022
1022
1022
1023
0
0
0
0
0
7
306
491
507
470
0
0
0
0
1023
1023
1022
1022
1022
1022
0
0
0
0
0
0
292
489
502
449
0
0
0
0
1022
1022
1022
1022
1022
1022
0
0
0
0
0
9
270
505
487
444
0
0
0
0
1022
1023
1022
1023
1022
1022
0
0
0
0
3
0
300
508
507
419
0
0
0
0
1022
1023
1022
1022
1022
1022
0
0
0
0
0
0
311
477
495
431
0
0
0
0
1022
1023
1022
1022
1022
1023
0
0
0
0
9
0
297
488
467
404
0
0
0
0
1022
1023
1022
1022
1022
1023
0
0
0
0
3
0
314
486
514
386
0
0
0
0
1022
1023
1022
1023
1022
1022
0
0
0
0
1
0
326
502
481
405
0
0
0
15
1022
1022
1022
1022
1023
1022
0
0
0
0
24
0
319
483
494
374
0
0
0
58
1022
1023
1022
1022
1022
1022
0
0
0
0
30
0
346
465
510
379
0
0
0
101
1022
1023
1022
1022
1023
1022
0
0
0
0
8
0
324
493
472
345
0
0
0
123
1022
1023
1022
1022
1022
1022
0
0
0
0
30
0
336
480
490
329
0
0
0
115
1022
1023
1022
1022
1023
1022
0
0
0
0
26
0
340
487
498
323
0
0
0
141
1022
1023
1022
1022
1023
1022
0
0
0
0
20
0
349
452
496
307
0
0
0
159
1022
1023
1022
1022
1023
1022
0
0
0
0
31
0
370
464
518
282
0
0
0
189
1022
1023
1022
1022
1023
1022
0
0
0
0
0
0
352
474
508
249
0
0
0
204
1022
1023
1022
1022
1022
1022
0
0
0
0
23
0
335
484
448
231
0
0
0
231
1022
1023
1022
1022
1022
1022
0
0
0
0
39
0
346
473
491
236
0
0
0
211
1022
1023
1022
1022
1022
1022
0
0
0
0
25
0
377
472
503
216
0
0
0
232
1022
1022
1022
1022
1023
1022
0
0
0
0
37
0
360
504
481
212
0
0
0
288
1023
1023
1022
1022
1022
1022
0
0
0
0
16
0
359
489
511
172
0
0
0
270
1022
1023
1023
1022
1022
1022
0
0
0
0
23
0
352
477
492
144
0
0
0
321
1022
1023
1022
1022
1022
1023
0
0
0
0
23
0
357
466
501
136
0
0
0
338
1022
1023
1022
1022
1023
1022
0
0
0
0
39
0
368
467
497
125
0
0
0
358
1022
1023
1022
1022
1023
1022
0
0
0
0
44
0
373
484
503
101
0
0
0
391
1022
1023
1022
1022
1022
1022
0
0
0
0
22
0
377
484
500
100
0
0
0
395
1022
1023
1022
1022
1022
1022
0
0
0
0
23
0
374
473
494
66
0
0
0
423
1022
1023
1022
1022
1022
1022
0
0
0
0
25
0
387
474
472
49
0
0
0
448
1022
1023
1022
1022
1023
1022
0
0
0
0
21
0
366
483
495
16
0
0
0
447
1022
1023
1022
1023
1023
1022
0
0
0
0
40
0
390
486
500
12
0
0
0
486
1022
1023
1022
1022
1023
1022
0
0
0
0
39
0
385
478
512
0
0
0
0
472
1022
1023
1023
1022
1023
1022
0
0
0
0
48
0
390
483
500
0
0
0
0
520
1022
1023
1022
1022
1022
1022
0
0
0
0
43
0
389
486
487
0
0
0
0
556
1022
1023
1022
1022
1023
1022
0
0
0
0
49
0
388
477
493
0
0
0
0
560
1022
1022
1022
1022
1023
1022
0
0
0
0
29
0
411
445
507
0
0
0
0
606
1022
1022
1022
1022
1022
1022
0
0
0
0
50
0
395
475
446
0
0
0
0
622
1023
1023
1022
1023
1022
1022
0
0
0
0
51
0
408
496
512
0
0
0
0
599
1022
1023
1022
1022
1022
1022
0
0
0
0
35
0
384
466
453
0
0
0
0
694
1022
1023
1022
1022
1022
1022
0
0
0
0
52
0
403
483
488
0
0
0
0
691
1022
1023
1022
1022
1023
1022
0
0
0
0
48
0
407
476
499
0
0
0
0
712
1022
1023
1022
1022
1023
1023
0
0
0
0
23
0
403
476
501
0
0
0
0
731
1022
1023
1022
1022
1022
1022
0
0
0
0
46
0
402
472
491
0
0
0
0
774
1022
1022
1022
1022
1023
1022
0
0
0
0
51
0
412
469
492
0
0
0
0
789
1022
1023
1022
1022
1023
1022
0
0
0
0
52
0
421
477
499
0
0
0
0
804
1022
1022
1022
1022
1023
1022
0
0
0
0
58
0
409
467
482
0
0
0
0
811
1022
1023
1022
1022
1022
1022
0
0
0
0
62
0
441
445
500
0
0
0
0
866
1022
1023
1022
1022
1023
1022
0
0
0
0
66
0
412
476
472
0
0
0
0
895
1022
1023
1022
1022
1022
1022
0
0
0
0
57
0
413
467
498
0
0
0
0
921
1022
1023
1022
1022
1023
1022
0
0
0
0
54
0
421
473
485
0
0
0
0
934
1022
1023
1022
1022
1023
1022
0
0
0
0
69
0
430
468
492
0
0
0
0
958
1022
1023
1022
1022
1023
1022
0
0
0
0
62
0
430
468
495
0
0
0
0
987
1022
1023
1022
1023
1022
1022
0
0
0
0
58
0
459
444
500
0
0
0
0
975
1022
1022
1022
1022
1022
1022
0
0
0
0
60
0
407
477
502
0
0
0
0
1012
1022
1022
1022
1022
1023
1022
0
0
0
0
63
0
438
462
489
0
0
0
0
1021
1022
1023
1022
1022
1023
1022
0
0
0
0
70
0
439
470
509
0
0
0
0
1020
1022
1023
1022
1022
1023
1022
0
0
0
0
70
0
432
454
487
0
0
0
0
1022
1022
1023
1022
1022
1023
1022
0
0
0
0
60
0
434
465
499
0
0
0
0
1022
1022
1023
1022
1022
1022
1022
0
0
0
0
60
0
434
455
494
0
0
0
0
1023
1022
1023
1022
1022
1022
1022
0
0
0
0
63
0
441
458
504
0
0
0
0
1023
1022
1023
1022
1023
1022
1022
0
0
0
0
51
0
442
455
495
0
0
0
0
1022
1022
1023
1022
1022
1022
1022
0
0
0
0
65
0
457
451
497
0
0
0
0
1022
1022
1023
1022
1023
1022
1022
0
0
0
0
71
6
419
467
487
0
0
0
0
1023
1022
1023
1022
1022
1023
1022
0
0
0
0
74
0
470
435
497
0
0
0
0
1022
1022
1023
1022
1022
1023
1022
0
0
0
0
62
0
469
436
521
0
0
0
0
1022
1022
1023
1022
1022
1023
1022
0
0
0
0
63
0
439
462
492
0
0
0
0
1023
1022
1023
1022
1022
1022
1022
0
0
0
0
61
0
469
429
501
0
0
0
0
1022
1022
1023
1022
1022
1023
1022
0
0
0
0
59
17
430
465
499
0
0
0
0
1023
1022
1023
1022
1022
1023
1022
0
0
0
0
63
0
451
474
499
0
0
0
0
1023
1022
1023
1022
1022
1023
1022
0
0
0
0
59
0
447
465
498
0
0
0
0
1023
1022
1023
1022
1022
1022
1022
0
0
0
0
49
0
462
432
491
0
0
0
0
1022
1022
1023
1022
1022
1022
1022
0
0
0
0
61
1
450
463
490
0
0
0
0
1023
1022
1022
1022
1022
1023
1022
0
0
0
0
61
16
451
457
493
0
0
0
0
1023
1022
1022
1022
1022
1022
1022
0
0
0
0
59
12
443
466
501
0
0
0
0
1022
1022
1023
1022
1022
1022
1022
0
0
0
0
49
37
455
464
494
0
0
0
0
1023
1022
1022
1022
1022
1022
1022
0
0
0
0
57
30
450
460
508
0
0
0
0
1023
1022
1022
1022
1022
1022
1022
0
0
0
0
60
71
435
468
496
0
0
0
0
1023
1022
1022
1022
1022
1022
1022
0
0
0
0
54
73
434
475
510
0
0
0
0
1022
1022
1023
1022
1022
1023
1022
0
0
0
0
55
61
453
482
476
0
0
0
0
1022
1022
1023
1022
1022
1022
1022
0
0
0
0
61
62
462
458
506
0
0
0
0
1022
1022
1023
1022
1023
1022
1022
0
0
0
0
48
66
455
455
507
0
0
0
0
1022
1022
1023
1022
1022
1022
1022
0
0
0
0
58
70
445
466
515
0
0
0
0
1022
1022
1022
1022
1022
1022
1022
0
0
0
0
67
88
463
469
509
0
0
0
0
1022
1022
1023
1022
1022
1022
1022
0
0
0
0
46
90
484
453
494
0
0
0
0
1022
1022
1023
1022
1022
1022
1021
0
0
0
0
58
96
481
433
515
0
0
0
0
1023
1022
1022
1022
1022
1022
1016
0
0
0
0
56
120
430
473
512
0
0
0
0
1023
1022
1023
1022
1023
1023
953
0
0
0
0
55
118
459
453
505
0
0
0
0
1022
1022
1023
1022
1022
1023
867
0
0
0
0
52
119
450
476
520
0
0
0
0
1023
1022
1023
1022
1023
1022
824
0
0
0
0
49
126
446
468
513
0
0
0
0
1023
1022
1023
1022
1023
1023
759
0
0
0
0
25
147
446
475
510
0
0
0
0
1023
1022
1023
1022
1022
1022
736
0
0
0
0
52
161
448
474
471
0
0
0
0
1023
1022
1023
1022
1022
1022
671
0
0
0
0
46
143
495
431
507
0
0
0
0
1022
1022
1023
1022
1022
1022
621
0
0
0
0
47
149
461
478
487
0
0
0
0
1022
1022
1023
1022
1022
1022
582
0
0
0
0
40
143
460
475
525
0
0
0
0
1023
1022
1022
1022
1023
1023
528
0
0
0
0
49
164
474
474
517
0
0
0
0
1023
1022
1023
1022
1022
1023
466
0
0
0
0
51
181
488
446
528
0
0
0
0
1022
1022
1023
1022
1022
1022
433
0
0
0
0
31
176
465
466
514
0
0
0
0
1023
1022
1023
1022
1022
1022
375
0
0
0
0
39
178
460
469
516
0
0
0
0
1023
1022
1022
1022
1023
1022
317
0
0
0
0
33
176
456
458
500
0
0
0
0
1023
1022
1023
1022
1022
1023
315
0
0
0
31
57
206
526
459
526
0
0
0
0
1022
1022
1023
1022
1022
1022
224
0
0
0
16
48
216
515
475
539
0
0
0
0
1022
1022
1023
1022
1022
1023
138
0
0
0
0
1
195
451
480
514
0
0
0
0
1022
1022
1023
1022
1023
1023
204
0
0
0
0
19
210
458
485
471
0
0
0
0
1022
1022
1023
1022
1022
1023
179
0
0
0
0
48
238
498
495
522
0
0
0
0
1022
1022
1022
1022
1022
1022
76
0
0
0
0
27
227
474
471
501
0
0
0
0
1023
1022
1023
1022
1022
1023
0
0
0
0
0
19
245
472
472
495
0
0
0
0
1023
1022
1023
1022
1023
1023
2
0
0
0
0
39
258
493
512
486
0
0
0
0
1023
1022
1023
1022
1022
1023
0
0
0
0
0
39
260
514
485
477
0
0
0
0
1023
1022
1022
1022
1023
1022
31
0
0
0
0
0
155
307
339
372
0
0
0
0
1023
1022
1022
1022
1023
1023
0
0
0
0
0
0
258
496
475
524
0
0
0
0
1022
1022
1023
1022
1022
1022
0
0
0
0
0
0
257
496
461
499
0
0
0
0
1022
1022
1023
1022
1022
1023
0
0
0
0
0
4
297
461
466
457
0
0
0
0
1023
1022
1023
1022
1023
1023
0
0
0
0
0
19
286
483
462
448
0
0
0
0
1022
1022
1023
1022
1022
1022
0
0
0
0
0
0
268
457
468
428
0
0
0
0
1022
1022
1023
1023
1022
1022
0
0
0
0
36
27
304
499
500
448
0
0
0
0
1023
1022
1022
1022
1023
1023
0
0
0
0
24
6
305
511
480
444
0
0
0
0
1023
1022
1022
1022
1023
1022
0
0
0
0
0
0
315
461
490
439
0
0
0
32
1022
1022
1023
1022
1022
1022
0
0
0
0
31
12
322
487
450
381
0
0
0
50
1022
1022
1023
1022
1023
1023
0
0
0
0
30
10
347
477
504
398
0
0
0
103
1023
1022
1023
1022
1022
1023
0
0
0
0
36
14
344
488
505
313
0
0
0
122
1023
1022
1023
1022
1022
1023
0
0
0
0
9
0
323
485
478
332
0
0
0
162
1023
1022
1023
1022
1022
1022
0
0
0
0
7
0
340
499
455
319
0
0
0
152
1022
1022
1023
1022
1022
1022
0
0
0
0
0
0
339
468
489
300
0
0
0
214
1023
1022
1023
1022
1022
1023
0
0
0
0
34
0
336
475
490
224
0
0
0
222
1023
1022
1023
1022
1023
1023
0
0
0
0
30
0
344
464
472
215
0
0
0
239
1023
1022
1023
1022
1022
1023
0
0
0
0
36
0
349
480
492
207
0
0
0
252
1022
1022
1023
1022
1022
1022
0
0
0
0
41
0
395
473
494
178
0
0
0
308
1023
1022
1023
1022
1022
1023
0
0
0
0
33
0
366
471
487
124
0
0
0
324
1022
1022
1022
1022
1022
1023
0
0
0
0
28
0
391
498
460
134
0
0
0
381
1022
1022
1022
1022
1022
1023
0
0
0
0
37
0
365
457
470
79
0
0
0
397
1022
1022
1023
1022
1022
1022
0
0
0
0
34
0
382
468
493
17
0
0
0
439
1022
1022
1023
1022
1022
1023
0
0
0
0
37
0
407
474
503
13
0
0
0
451
1022
1022
1023
1022
1022
1022
0
0
0
0
43
0
387
497
490
8
0
0
0
507
1022
1022
1023
1022
1022
1022
0
0
0
0
41
0
384
474
493
0
0
0
0
550
1022
1022
1023
1022
1023
1023
0
0
0
0
28
0
387
449
479
0
0
0
0
554
1022
1022
1022
1022
1023
1022
0
0
0
0
40
0
408
480
497
0
0
0
0
577
1023
1022
1022
1022
1022
1022
0
0
0
0
39
0
389
463
482
0
0
0
0
631
1022
1022
1022
1022
1022
1022
0
0
0
0
30
0
408
461
478
0
0
0
0
667
1023
1022
1022
1022
1023
1023
0
0
0
0
53
0
419
480
490
0
0
0
0
696
1022
1022
1023
1022
1023
1022
0
0
0
0
42
0
405
468
485
0
0
0
0
763
1022
1022
1023
1022
1022
1022
0
0
0
0
47
0
411
472
491
0
0
0
0
778
1022
1022
1022
1022
1023
1023
0
0
0
0
42
0
419
467
498
0
0
0
0
795
1023
1022
1023
1022
1023
1022
0
0
0
0
38
0
427
481
501
0
0
0
0
833
1023
1022
1023
1022
1022
1023
0
0
0
0
67
0
433
500
457
0
0
0
0
824
1022
1022
1023
1022
1023
1022
0
0
0
0
50
0
434
475
483
0
0
0
0
895
1022
1022
1022
1022
1022
1022
0
0
0
0
39
0
414
464
486
0
0
0
0
942
1022
1022
1022
1022
1022
1023
0
0
0
0
46
0
450
453
489
0
0
0
0
975
1022
1022
1023
1022
1022
1023
0
0
0
0
44
0
457
474
499
0
0
0
0
1008
1022
1022
1022
1022
1022
1022
0
0
0
0
34
0
436
470
494
0
0
0
0
999
1022
1022
1023
1022
1022
1022
0
0
0
0
37
0
423
460
485
0
0
0
0
1020
1023
1022
1022
1022
1022
1022
0
0
0
0
46
0
439
467
486
0
0
0
0
1020
1022
1022
1022
1022
1023
1022
0
0
0
0
52
0
462
458
491
0
0
0
0
1022
1023
1022
1023
1022
1023
1023
0
0
0
0
33
0
434
469
487
0
0
0
0
1022
1023
1022
1022
1022
1022
1023
0
0
0
0
9
0
468
446
497
0
0
0
0
1022
1023
1022
1022
1022
1022
1022
0
0
0
0
34
0
456
468
502
0
0
0
0
1022
1022
1022
1022
1022
1022
1022
0
0
0
0
44
0
480
454
499
0
0
0
0
1022
1022
1022
1023
1022
1022
1022
0
0
0
0
35
0
437
471
479
0
0
0
0
1022
1022
1022
1022
1022
1022
1023
0
0
0
0
9
0
464
482
475
0
0
0
0
1023
1022
1022
1022
1022
1023
1023
0
0
0
0
36
0
451
459
494
0
0
0
0
1022
1023
1022
1022
1022
1022
1023
0
0
0
0
40
0
449
460
495
0
0
0
0
1023
1023
1022
1022
1022
1023
1023
0
0
0
0
43
0
458
479
485
0
0
0
0
1022
1023
1022
1022
1022
1022
1023
0
0
0
0
46
26
462
456
486
0
0
0
0
1023
1022
1022
1022
1022
1023
1023
0
0
0
0
36
1
462
477
452
0
0
0
0
1022
1022
1022
1022
1022
1022
1022
0
0
0
0
6
44
480
447
503
0
0
0
0
1022
1022
1022
1022
1022
1022
1022
0
0
0
0
40
45
453
481
497
0
0
0
0
1022
1022
1022
1023
1022
1022
1023
0
0
0
0
33
45
464
465
486
0
0
0
0
1022
1023
1022
1022
1022
1023
1022
0
0
0
0
27
46
463
457
487
0
0
0
0
1023
1022
1022
1022
1022
1022
1022
0
0
0
0
49
58
466
470
490
0
0
0
0
1022
1022
1022
1022
1023
1022
1022
0
0
0
0
44
84
461
480
502
0
0
0
0
1022
1022
1022
1022
1022
1022
1022
0
0
0
0
22
82
476
480
499
0
0
0
0
1022
1022
1022
1022
1022
1023
1022
0
0
0
0
50
95
467
462
486
0
0
0
0
1022
1023
1022
1022
1022
1022
1022
0
0
0
0
45
85
472
473
499
0
0
0
0
1023
1022
1022
1022
1022
1022
1022
0
0
0
0
5
113
480
487
498
0
0
0
0
1022
1023
1022
1022
1022
1022
1017
0
0
0
0
37
94
455
473
489
0
0
0
0
1022
1022
1022
1023
1022
1022
1000
0
0
0
0
35
111
467
480
491
0
0
0
0
1023
1022
1022
1022
1022
1023
926
0
0
0
0
27
121
463
473
498
0
0
0
0
1022
1022
1022
1022
1022
1022
844
0
0
0
0
1
131
469
496
478
0
0
0
0
1022
1022
1022
1022
1022
1023
757
0
0
0
0
41
140
469
477
499
0
0
0
0
1022
1022
1022
1022
1022
1023
731
0
0
0
0
29
145
481
472
504
0
0
0
0
1023
1022
1022
1022
1022
1022
666
0
0
0
0
35
164
464
472
508
0
0
0
0
1022
1023
1022
1022
1022
1023
574
0
0
0
0
27
166
466
503
465
0
0
0
0
1022
1023
1022
1022
1022
1023
552
0
0
0
0
23
172
469
469
510
0
0
0
0
1022
1022
1022
1022
1022
1022
500
0
0
0
0
31
186
482
475
519
0
0
0
0
1022
1022
1022
1022
1022
1022
447
0
0
0
0
25
163
455
481
505
0
0
0
0
1022
1022
1022
1022
1022
1023
404
0
0
0
0
40
212
480
496
510
0
0
0
0
1023
1022
1022
1022
1022
1022
352
0
0
0
0
18
209
478
478
498
0
0
0
0
1022
1022
1022
1022
1022
1022
283
0
0
0
0
22
212
472
467
496
0
0
0
0
1023
1023
1022
1022
1022
1023
265
0
0
0
0
34
233
472
476
503
0
0
0
0
1023
1022
1022
1022
1022
1022
229
0
0
0
0
6
238
483
483
493
0
0
0
0
1023
1022
1022
1022
1022
1022
174
0
0
0
0
32
249
480
479
515
0
0
0
0
1022
1022
1022
1022
1022
1023
130
0
0
0
0
32
241
468
475
505
0
0
0
0
1023
1022
1022
1022
1022
1022
99
0
0
0
0
36
252
460
478
493
0
0
0
0
1022
1022
1022
1022
1022
1022
49
0
0
0
0
38
248
454
469
484
0
0
0
0
1023
1022
1022
1022
1022
1022
5
0
0
0
0
33
249
461
486
491
0
0
0
0
1022
1022
1022
1022
1022
1022
0
0
0
0
0
46
272
460
469
480
0
0
0
0
1022
1022
1022
1022
1022
1022
0
0
0
0
0
24
277
448
496
447
0
0
0
0
1022
1022
1022
1022
1022
1023
0
0
0
0
0
37
274
451
475
473
0
0
0
0
1023
1022
1022
1022
1022
1023
0
0
0
0
0
42
273
483
455
468
0
0
0
0
1023
1022
1022
1022
1022
1023
0
0
0
0
0
41
308
461
463
456
0
0
0
47
1022
1023
1022
1022
1022
1022
0
0
0
0
0
4
304
462
456
450
0
0
0
17
1022
1022
1022
1022
1022
1023
0
0
0
0
18
32
294
444
469
439
0
0
0
73
1022
1022
1022
1022
1022
1022
0
0
0
0
17
31
302
455
467
425
0
0
0
80
1022
1022
1022
1023
1022
1022
0
0
0
0
32
48
307
458
473
425
0
0
0
85
1023
1022
1022
1022
1022
1022
0
0
0
0
47
5
306
459
465
407
0
0
0
120
1022
1022
1022
1022
1022
1023
0
0
0
0
0
42
319
463
433
390
0
0
0
145
1022
1022
1022
1022
1022
1022
0
0
0
0
20
7
321
440
476
376
0
0
0
165
1022
1022
1022
1022
1022
1023
0
0
0
0
24
32
326
444
473
369
0
0
0
201
1022
1023
1022
1022
1022
1023
0
0
0
0
24
26
335
454
491
322
0
0
0
234
1022
1022
1022
1022
1022
1023
0
0
0
0
31
18
331
451
467
334
0
0
0
240
1022
1022
1022
1022
1022
1022
0
0
0
0
28
16
340
483
454
327
0
0
0
251
1022
1022
1022
1022
1022
1023
0
0
0
0
32
28
345
453
460
295
0
0
0
262
1023
1022
1022
1022
1022
1022
0
0
0
0
34
15
346
454
461
261
0
0
0
280
1023
1023
1022
1022
1023
1023
0
0
0
0
30
18
358
434
472
243
0
0
0
320
1022
1023
1022
1022
1022
1023
0
0
0
0
37
16
364
451
496
205
0
0
0
335
1022
1022
1022
1022
1022
1022
0
0
0
0
33
23
361
453
467
205
0
0
0
372
1023
1022
1022
1022
1022
1022
0
0
0
0
35
14
359
480
446
200
0
0
0
397
1023
1022
1022
1022
1022
1023
0
0
0
0
41
19
373
451
462
158
0
0
0
437
1022
1022
1022
1022
1022
1022
0
0
0
0
47
23
371
450
463
135
0
0
0
448
1022
1022
1022
1022
1022
1022
0
0
0
0
47
22
376
456
464
109
0
0
0
472
1023
1022
1022
1022
1022
1023
0
0
0
0
48
0
381
481
451
85
0
0
0
486
1022
1022
1022
1022
1022
1023
0
0
0
0
42
18
385
459
467
57
0
0
0
540
1022
1022
1022
1022
1022
1022
0
0
0
0
44
8
389
452
471
28
0
0
0
566
1022
1022
1022
1022
1022
1023
0
0
0
0
41
5
387
449
472
12
0
0
0
584
1023
1022
1022
1022
1022
1023
0
0
0
0
41
3
395
456
483
0
0
0
0
619
1023
1022
1022
1022
1022
1022
0
0
0
0
23
10
392
450
464
0
0
0
0
641
1022
1022
1022
1023
1022
1022
0
0
0
0
46
6
396
444
467
0
0
0
0
668
1022
1022
1022
1022
1022
1023
0
0
0
0
11
6
404
452
473
0
0
0
0
700
1023
1023
1022
1022
1022
1022
0
0
0
0
58
0
412
487
463
0
0
0
0
728
1022
1022
1022
1022
1022
1022
0
0
0
0
39
0
408
440
484
0
0
0
0
754
1022
1023
1022
1022
1022
1022
0
0
0
0
45
0
405
437
482
0
0
0
0
801
1022
1022
1022
1022
1022
1023
0
0
0
0
43
0
407
459
494
0
0
0
0
822
1022
1022
1022
1022
1022
1022
0
0
0
0
7
4
416
455
467
0
0
0
0
887
1022
1022
1022
1022
1022
1022
0
0
0
0
43
1
420
455
478
0
0
0
0
895
1023
1022
1022
1022
1022
1023
0
0
0
0
55
0
426
448
467
0
0
0
0
910
1023
1022
1022
1022
1022
1023
0
0
0
0
54
0
418
448
463
0
0
0
0
944
1022
1023
1022
1022
1022
1023
0
0
0
0
48
3
436
433
504
0
0
0
0
964
1023
1022
1022
1022
1022
1023
0
0
0
0
47
0
424
451
485
0
0
0
0
1008
1022
1022
1022
1022
1022
1022
0
0
0
0
48
2
424
448
501
0
0
0
0
1013
1022
1022
1022
1022
1022
1022
0
0
0
0
50
0
433
487
455
0
0
0
0
1020
1022
1023
1022
1022
1022
1022
0
0
0
0
39
1
430
460
483
0
0
0
0
1022
1022
1022
1022
1022
1022
1023
0
0
0
0
54
0
430
473
448
0
0
0
0
1022
1022
1022
1022
1022
1022
1023
0
0
0
0
48
0
430
452
479
0
0
0
0
1022
1023
1022
1022
1022
1022
1022
0
0
0
0
57
1
436
439
479
0
0
0
0
1022
1022
1023
1022
1022
1022
1022
0
0
0
0
44
11
447
472
501
0
0
0
0
1022
1022
1022
1022
1022
1022
1022
0
0
0
0
34
0
429
471
432
0
0
0
0
1022
1022
1023
1022
1022
1022
1022
0
0
0
0
51
30
477
508
537
0
0
0
0
1022
1023
1022
1022
1022
1022
1023
0
0
0
0
37
0
451
455
475
0
0
0
0
1022
1022
1023
1022
1022
1022
1022
0
0
0
0
0
0
448
453
452
0
0
0
0
1022
1022
1022
1022
1022
1022
1023
0
0
0
0
35
0
459
462
487
0
0
0
0
1022
1023
1023
1022
1022
1022
1022
0
0
0
0
1
32
457
454
503
0
0
0
0
1022
1022
1022
1022
1022
1022
1022
0
0
0
0
49
23
465
496
470
0
0
0
0
1022
1022
1022
1022
1022
1022
1022
0
0
0
0
27
22
461
463
473
0
0
0
0
1022
1022
1023
1022
1022
1022
1023
0
0
0
0
39
47
465
459
494
0
0
0
0
1022
1023
1022
1022
1022
1022
1023
0
0
0
0
29
27
458
476
464
0
0
0
0
1022
1023
1022
1022
1022
1022
1023
0
0
0
0
50
61
479
471
484
0
0
0
0
1022
1022
1023
1022
1022
1022
1023
0
0
0
0
12
9
464
466
494
0
0
0
0
1022
1022
1022
1022
1022
1022
1023
0
0
0
0
1
47
455
431
455
0
0
0
0
1022
1022
1023
1022
1022
1022
1023
0
0
0
0
88
99
508
486
505
0
0
0
0
1022
1023
1022
1022
1022
1022
1022
0
0
0
0
24
2
458
434
464
0
0
0
0
1022
1022
1022
1022
1022
1022
1022
0
0
0
0
16
53
453
425
451
0
0
0
0
1022
1022
1023
1022
1022
1022
1022
0
0
0
0
44
120
504
501
537
0
0
0
0
1022
1023
1023
1022
1022
1022
1022
0
0
0
0
7
67
487
467
492
0
0
0
0
1023
1022
1023
1022
1022
1022
1022
0
0
0
0
0
73
470
457
473
0
0
0
0
1022
1023
1022
1022
1022
1022
1022
0
0
0
0
22
68
472
460
475
0
0
0
0
1022
1022
1023
1022
1022
1022
1022
0
0
0
0
44
101
491
483
499
0
0
0
0
1022
1023
1023
1022
1022
1022
1022
0
0
0
0
25
92
470
459
494
0
0
0
0
1022
1022
1022
1022
1022
1022
1020
0
0
0
0
23
113
478
487
500
0
0
0
0
1022
1023
1022
1022
1022
1022
1019
0
0
0
0
0
110
472
468
486
0
0
0
0
1022
1023
1022
1022
1022
1022
1018
0
0
0
0
20
121
480
493
460
0
0
0
0
1022
1022
1022
1022
1022
1022
951
0
0
0
0
40
148
502
474
525
0
0
0
0
1022
1022
1022
1022
1022
1022
881
0
0
0
0
11
118
476
452
495
0
0
0
0
1022
1023
1022
1022
1022
1022
839
0
0
0
0
17
134
492
467
500
0
0
0
0
1022
1022
1022
1022
1022
1022
763
0
0
0
0
19
139
494
464
504
0
0
0
0
1022
1022
1022
1022
1022
1022
729
0
0
0
0
0
149
487
498
489
0
0
0
0
1022
1022
1023
1022
1022
1022
652
0
0
0
0
0
142
480
482
501
0
0
0
0
1022
1023
1022
1022
1022
1022
605
0
0
0
0
14
157
500
480
494
0
0
0
0
