416
399
384
409
438
500
579
667
745
828
915
992
1018
995
946
881
798
702
619
545
478
410
377
385
422
473
546
632
707
773
848
904
928
913
868
799
710
615
519
430
359
298
257
262
304
361
431
511
574
651
735
788
807
791
738
669
567
461
365
285
227
207
201
230
275
345
435
531
615
694
771
818
821
790
736
667
559
449
351
257
188
119
85
93
120
169
239
299
359
417
486
524
541
513
454
376
259
143
33
0
0
0
0
0
0
0
0
39
97
159
232
297
335
313
254
188
100
9
0
0
0
0
0
0
0
0
0
67
161
257
344
388
406
386
351
289
207
119
30
0
0
0
0
0
0
0
0
0
0
3
126
81
0
56
30
0
29
215
395
590
791
920
935
831
719
776
909
1022
1022
1022
1022
1023
1022
1022
1022
1022
1022
1022
1022
1022
1022
877
670
566
583
620
656
730
780
800
838
876
915
1014
1022
1022
1022
867
709
533
380
264
200
217
270
307
366
468
577
716
895
1022
1022
1022
1022
941
761
565
368
221
135
74
37
47
103
187
300
432
564
683
796
864
868
812
700
533
350
164
7
0
0
0
0
0
0
0
0
60
179
279
360
407
408
389
325
262
186
97
32
6
13
35
73
145
243
360
487
591
661
739
801
824
812
763
673
579
483
392
338
296
278
281
308
361
421
498
601
675
728
781
841
872
875
841
780
711
605
499
409
349
302
273
271
295
322
372
430
484
532
583
643
686
689
677
643
596
528
452
384
336
293
257
255
273
315
373
450
538
630
719
823
902
954
958
936
895
829
749
679
622
580
561
564
599
664
760
864
983
1022
1022
1022
1022
1022
1022
1022
1022
1022
1022
958
872
808
766
727
729
753
789
854
915
976
1022
1022
1022
1022
1022
983
864
722
575
452
335
232
157
106
109
134
188
266
342
398
464
537
585
601
581
537
473
379
276
194
131
93
81
98
155
216
303
408
515
621
726
833
927
955
951
905
826
733
632
539
451
363
281
224
211
209
236
286
336
376
408
454
483
478
444
379
285
175
56
0
0
0
0
0
0
0
87
184
303
407
523
639
723
776
796
758
704
627
533
459
392
344
316
303
335
398
483
575
668
756
855
940
995
1021
1001
951
871
768
668
581
503
440
397
382
399
443
499
580
654
713
779
842
894
908
892
837
754
626
508
414
357
316
287
279
310
349
415
503
599
696
796
888
959
985
979
934
863
768
680
593
533
486
457
463
498
559
639
732
849
971
1022
1022
1022
1022
1022
1022
1022
949
847
760
697
643
606
577
584
618
671
730
791
856
922
990
1020
1009
960
872
755
608
470
343
233
134
60
3
0
14
48
103
147
201
265
324
362
361
323
248
161
55
0
0
0
0
0
0
0
0
0
0
54
152
253
339
413
445
447
419
378
311
241
171
122
97
95
111
175
249
353
472
584
687
790
892
967
990
976
936
881
792
702
611
543
487
444
435
468
519
587
664
753
828
887
947
991
984
950
889
806
692
560
448
357
283
234
212
235
284
351
419
502
567
647
731
780
787
760
691
613
508
405
316
237
169
127
104
132
190
269
369
475
568
671
763
829
852
841
799
724
629
522
451
378
321
280
280
317
380
475
586
679
765
855
941
1000
1022
1015
969
902
792
673
572
484
413
349
312
319
334
379
435
497
551
615
680
730
734
704
642
550
434
319
227
159
90
38
18
36
79
156
246
334
423
507
590
663
706
714
683
622
547
466
390
321
263
224
214
235
282
351
427
518
604
693
777
843
864
858
797
719
620
525
433
361
307
280
275
297
344
409
492
574
642
728
799
832
837
799
798
804
768
682
611
547
465
407
372
377
383
429
508
590
697
837
960
1022
1021
964
941
917
849
748
655
578
505
474
480
517
567
642
745
861
988
1022
1022
1022
1022
1023
1022
1022
1022
970
866
774
691
637
654
723
834
924
997
1022
1022
1022
1022
1022
1022
1022
1022
977
821
651
512
399
294
220
171
155
169
205
270
336
396
466
532
572
575
552
500
417
320
224
132
53
0
0
0
0
0
84
168
258
348
441
531
596
618
599
549
480
383
283
207
133
83
52
50
86
135
212
307
390
470
556
637
687
692
663
605
527
423
323
238
161
105
68
55
87
128
196
278
364
435
507
583
658
677
652
605
533
436
334
246
175
136
107
68
84
130
198
283
375
469
575
641
696
711
688
641
572
489
413
322
238
174
138
135
163
226
333
429
500
568
651
733
783
799
798
759
651
536
431
342
268
204
183
203
227
261
334
424
519
605
699
799
856
856
831
777
711
605
504
444
387
316
259
238
255
292
355
446
537
594
648
719
759
764
737
684
595
483
369
278
201
145
116
107
142
185
253
340
439
514
601
679
740
748
723
667
595
499
394
310
244
184
138
127
154
212
292
380
467
547
635
714
762
774
752
695
617
525
417
328
260
211
183
187
224
286
360
453
547
625
707
794
856
879
867
820
752
658
569
484
419
369
357
355
392
460
537
625
711
776
862
932
974
982
954
884
791
675
553
448
346
261
211
187
201
236
291
386
462
536
627
708
775
802
787
748
680
585
487
405
338
287
260
267
323
384
480
595
720
841
971
1022
1022
1022
1022
1022
1022
1022
992
923
883
844
817
816
838
873
908
949
996
1022
1022
1022
1022
997
907
793
645
483
310
166
47
0
0
0
0
0
0
31
126
218
320
425
504
547
560
530
483
405
328
255
188
143
133
132
167
220
294
379
468
541
631
703
745
750
712
647
553
442
325
228
136
61
2
0
1
59
133
225
305
365
429
487
523
525
479
415
313
196
91
5
0
0
0
0
0
0
0
46
134
215
291
371
438
482
463
409
352
275
190
123
85
79
88
116
183
278
401
527
661
789
914
1008
1022
1022
1023
1022
1022
961
872
763
651
572
511
472
486
525
598
670
720
772
831
884
917
919
889
825
715
590
488
395
302
224
188
176
174
189
237
311
388
460
536
625
665
652
602
527
450
347
251
181
112
26
0
0
0
0
46
140
246
301
365
440
490
504
471
414
355
259
143
49
0
0
0
0
0
27
82
175
276
375
474
570
638
662
662
637
572
480
389
323
280
235
201
205
263
339
412
507
605
689
768
844
879
863
809
736
639
508
377
272
187
123
86
72
108
172
240
324
414
503
598
712
795
837
821
764
695
601
505
427
367
329
325
338
376
424
503
593
699
785
883
957
1006
1021
994
947
865
768
684
592
508
446
400
387
415
461
528
632
720
793
871
951
1004
1010
977
923
835
726
608
505
409
334
288
276
283
302
342
413
489
555
636
704
740
715
656
573
472
343
223
134
91
36
4
0
32
75
141
213
288
356
428
497
540
534
497
433
341
236
111
15
0
0
0
0
0
0
14
102
191
272
377
474
537
561
543
489
419
335
249
186
136
98
86
76
100
158
239
335
437
527
631
714
777
802
784
733
639
527
425
342
291
266
224
180
153
179
227
284
334
386
457
526
569
571
529
479
377
237
105
15
0
0
0
0
0
71
196
312
401
488
603
706
765
745
711
665
604
510
407
326
275
236
215
213
259
333
420
509
594
667
745
828
879
879
835
755
649
543
425
312
217
155
109
64
61
88
126
166
215
256
302
332
350
343
302
221
117
2
0
0
0
0
0
0
0
0
0
0
0
0
0
18
53
39
0
0
0
0
0
0
0
0
0
0
0
0
0
0
0
0
0
0
0
11
0
0
0
0
0
0
0
0
0
0
0
0
0
0
0
0
29
103
154
149
104
39
0
0
0
0
0
0
0
0
0
0
0
0
0
0
44
131
189
196
179
130
58
0
0
0
0
0
0
0
0
0
0
0
23
108
190
262
312
328
299
237
166
76
0
0
0
0
0
0
0
0
0
17
113
190
280
355
403
423
407
367
301
207
123
54
0
0
0
0
0
54
126
212
300
377
465
545
602
624
615
583
520
452
379
311
253
211
195
216
267
327
404
492
574
636
726
804
865
872
853
811
749
667
579
497
446
394
364
342
367
416
484
559
636
700
763
823
862
867
846
806
743
667
582
509
446
393
367
358
382
423
474
530
598
651
712
774
810
822
803
752
692
625
563
503
454
422
419
428
469
531
606
688
775
837
910
965
1011
1021
990
945
883
790
700
627
553
498
461
448
467
491
532
580
613
638
672
710
724
713
679
636
558
469
396
349
318
305
305
324
377
418
496
568
640
711
802
899
978
1021
1022
1022
1022
1022
1022
1022
1022
1022
1022
1022
1022
1022
1022
1022
1022
1022
1022
1022
1022
1022
1022
1022
1022
1022
1022
1022
1022
1022
1022
1022
1022
1022
1022
1022
1022
1022
1022
1022
1022
1022
1022
1022
1022
1022
1022
1022
1022
1022
1022
1022
1022
1022
1022
1022
1022
1022
1022
1022
1022
1022
1022
1022
1022
1022
1022
1022
1022
1022
1022
1022
1022
1022
1022
1022
1022
1022
1022
1022
1022
1022
1022
1022
1022
1022
1022
1022
1004
944
924
917
927
929
948
990
1022
1022
1022
1022
1022
1022
1023
1022
1022
1022
1022
1022
1022
1002
1005
1009
1022
1022
1022
1022
1022
1022
1022
1022
1022
1022
1022
1022
1022
1022
1022
1022
1022
1022
1022
1022
1022
1022
1022
1022
1022
1022
1022
1022
1022
1022
1022
1022
1022
1022
1022
1022
1022
1022
1022
1022
1023
1022
1022
1022
1022
1022
1022
1022
1022
1022
1022
1022
1022
1022
1022
1022
1022
1022
1022
1022
1022
1022
1023
1022
1022
1022
1022
1022
1022
1022
1022
1022
1022
1022
1022
1023
1022
1022
1022
1022
1022
1022
1022
1022
1022
1022
1022
1022
1022
1022
1022
1022
1022
1022
1022
1022
1022
1023
1022
1022
1023
1023
1022
1022
1022
1022
1022
1022
1022
1022
1022
1022
1022
1022
1022
1023
1022
1022
1022
1022
1022
1022
1022
1022
1022
1022
1022
1022
1022
1022
1022
1022
1022
1022
1022
1022
1023
1023
1022
1023
1022
1022
1022
1022
1022
1022
1022
1022
1022
1022
1022
1022
1022
1022
1022
1022
1022
1022
1022
1022
637
307
33
0
0
0
0
0
0
0
0
0
0
0
0
0
0
0
0
0
0
0
0
0
0
0
0
0
0
0
0
0
0
0
0
0
0
0
0
0
0
102
250
376
447
401
300
176
49
0
0
0
0
0
0
0
0
0
0
0
0
0
0
0
0
0
0
0
0
0
0
0
0
0
0
0
0
0
0
0
0
0
0
0
0
0
0
0
0
0
0
0
0
0
0
0
0
0
0
0
0
0
0
0
0
0
0
0
0
0
0
0
0
0
0
0
0
0
0
0
0
0
0
0
0
0
0
0
0
0
0
0
0
0
0
0
0
0
0
0
0
0
0
0
0
0
0
0
0
0
0
0
0
0
0
0
0
0
0
0
0
0
0
0
0
0
0
0
0
0
0
0
0
0
0
0
0
0
0
0
0
0
0
0
0
113
267
396
466
496
485
433
388
336
272
223
206
288
453
640
831
1019
1022
1022
1022
1022
1022
1022
1022
1023
1022
1022
1023
1022
1022
1022
1022
1022
1022
1022
1023
1022
1022
1022
1022
1022
1022
846
606
368
148
0
0
0
0
0
0
0
0
0
0
0
0
0
44
313
556
816
1022
1022
1022
1022
1022
1022
1022
1022
1022
1022
1022
1022
1022
1022
1022
1022
1022
1022
1022
1022
1022
1022
1022
1022
1022
1022
1022
1022
1022
1022
1022
1022
1023
1022
1022
1022
1022
1023
1022
1022
1022
1022
1022
1022
1022
1022
1022
1022
1022
1022
357
0
0
0
0
0
0
0
0
0
0
0
0
0
0
0
0
0
0
0
0
0
0
0
0
779
1022
1022
1022
1022
1022
1022
1023
1022
1022
1022
1022
1022
1021
73
0
0
0
0
0
0
0
0
0
0
0
0
0
0
0
0
0
0
0
0
0
0
0
0
0
0
365
1022
1022
1022
1022
1023
1022
1022
1022
1022
1022
1022
1022
1022
1022
1022
1022
1023
1022
1022
1022
1022
1022
1022
1023
1022
1022
941
612
361
131
0
0
0
0
0
0
0
0
0
0
0
0
0
0
0
0
0
0
0
0
0
0
0
0
0
0
0
0
0
0
0
0
0
0
0
0
0
0
0
0
0
0
0
0
0
0
0
0
0
0
0
0
0
0
0
0
0
0
0
0
0
0
0
0
0
0
0
0
0
0
0
0
0
0
0
0
0
0
0
0
0
0
0
0
0
0
0
0
0
0
0
0
0
0
0
0
0
0
0
0
0
0
0
0
0
0
0
9
241
494
669
774
1022
1022
1022
1022
1022
1022
1022
1022
1022
1022
1022
1022
1022
1022
1022
1022
787
524
461
381
166
0
0
0
0
0
0
0
0
0
0
0
0
0
0
0
0
0
0
0
0
0
0
0
0
0
0
0
0
0
0
0
0
0
0
0
0
0
0
0
0
0
0
0
0
0
0
0
0
0
0
0
0
0
352
1022
1022
1022
1022
1022
1022
1022
1022
1022
1022
1022
1022
1022
1022
1022
1022
1022
1022
1022
1022
850
829
1022
1022
1022
1022
1022
1022
1022
1022
1022
1022
1022
1022
989
951
980
1022
1022
1022
1022
1022
1022
1022
1023
1022
1022
1022
947
636
379
168
5
0
0
63
241
339
403
471
493
532
518
546
655
824
1021
1022
1022
1022
1022
1022
1022
1022
1022
918
864
915
1022
1022
1022
1022
1022
1022
1022
1022
1022
1022
1022
1022
1022
1022
1022
1022
1022
1022
1022
1022
1022
1022
1022
1022
1022
1022
1022
1022
1022
1022
1022
1022
1022
1022
1022
1022
1022
1022
1022
1022
1022
1022
1022
1022
1022
1022
1022
1022
1022
1022
1022
1023
1022
1022
1022
1022
1022
1022
1022
1022
1022
1022
1022
1022
1022
1022
1022
1022
1022
1022
1022
1022
1022
1022
1022
1022
1022
1022
1022
1022
1022
1022
1022
1022
1022
1022
1022
1022
1022
1022
1022
1022
1022
1022
1022
1022
1022
1022
1022
995
942
910
935
908
877
881
917
942
919
871
785
686
559
421
287
167
81
7
0
0
0
0
0
0
0
0
0
0
0
0
0
0
0
0
6
66
135
162
203
253
302
354
420
508
603
697
793
927
1022
1022
1022
1022
1022
1022
1022
1022
1022
1022
1022
1022
1022
1022
1022
1022
1022
1022
1022
1022
1022
1022
1022
1022
1022
1022
1022
1022
1023
1022
1022
1022
1023
1022
1022
1023
1023
1022
1022
1022
1022
1022
1022
1022
1022
1022
1022
1022
1023
1022
1022
1022
1022
1022
1022
1022
1022
1022
1022
1022
1022
1022
1022
1022
1022
1022
1022
1022
1022
1023
1022
1022
1023
1022
1022
1022
1022
1022
1022
1022
1022
1022
1022
1023
1022
1022
1022
1022
1022
1022
1022
1022
1022
1022
1022
1022
1022
1022
1022
1022
1022
1022
1023
1022
1022
1022
1022
1022
1022
1022
1022
1022
1022
1022
1022
1022
1022
1022
1022
1022
1022
1022
1022
1022
1022
1022
1022
1022
1023
1022
1022
1022
1022
1022
1022
1022
1022
1022
1023
1022
1022
1022
1022
1022
1022
1022
1022
1022
1023
1022
1022
1022
1022
1022
1022
1022
1022
1022
1022
1022
1023
1022
1023
1022
1022
1022
1023
1023
1022
1022
1022
1022
1023
1022
1022
1022
1022
1022
1022
1023
1022
1022
1022
1022
1022
1022
1022
1022
1022
1022
1022
1022
1023
1023
1022
1022
1022
1022
1022
1022
1022
1022
1022
1023
1022
1022
1022
1022
1022
1022
1022
1022
1022
1022
1022
1022
1022
1022
1023
1022
1022
1022
1022
1022
1022
1022
1022
1022
1023
1022
1022
1022
1022
1022
1022
1022
1022
1022
1021
765
507
240
12
0
0
0
0
0
0
0
0
0
0
0
0
0
0
0
0
0
0
0
0
0
0
0
0
0
0
0
0
0
0
0
0
0
0
0
0
0
0
223
353
368
370
422
500
501
398
227
77
0
0
0
0
0
0
0
0
0
0
0
0
0
0
0
0
0
0
0
0
0
0
0
0
0
0
0
0
0
0
0
0
0
0
0
0
0
0
0
0
0
0
0
0
0
0
0
116
353
568
707
854
1017
1022
1022
1022
1022
1022
1022
1022
1022
1022
1022
1022
899
716
563
435
320
200
50
0
0
0
0
0
0
0
0
0
0
0
0
0
0
0
0
0
0
0
0
0
0
0
228
604
1022
1023
1022
1022
1022
1022
1022
1022
1022
1022
1022
1022
1022
1022
1023
1022
1023
1022
1023
1022
1022
1022
1022
1022
1022
1023
1023
1022
1022
1022
1022
1022
1021
769
450
191
62
0
0
0
0
0
0
0
0
0
49
463
963
1022
1022
1022
1022
1022
1022
1022
1022
1022
1023
1023
1022
1023
1022
1022
1023
1022
1022
1022
1022
1022
1022
1023
1022
1022
1022
1022
1023
1022
1022
1023
1022
1023
798
200
0
0
0
0
0
0
0
0
0
0
0
0
0
0
0
0
0
0
0
0
0
0
0
0
0
0
0
0
0
0
0
0
0
0
0
0
47
197
292
390
643
1022
1022
1022
1022
1022
1023
1022
1022
880
359
655
874
380
0
0
0
0
0
0
0
0
0
0
0
0
0
0
0
0
0
0
0
0
0
0
0
0
0
0
0
0
0
263
1022
1022
1022
1022
1022
1022
1022
1022
968
0
0
0
0
0
0
0
0
520
1022
1022
1022
520
51
0
0
0
0
0
0
0
0
0
0
0
0
0
0
0
0
0
0
0
0
0
0
0
0
0
0
0
0
0
0
0
0
0
0
0
0
0
0
0
0
0
0
0
0
0
0
0
0
0
0
0
0
0
0
0
0
0
62
476
806
1021
1022
1022
1022
1022
1023
1023
1022
1022
1023
1022
1022
1022
1022
1022
1022
1022
1022
1022
1022
1023
1022
1022
1022
1022
1023
1022
1022
1023
1022
1023
1022
1022
1022
1022
1022
1022
1022
1023
1022
1023
1022
1022
1022
1022
1023
1023
1022
1022
1022
1022
1022
1022
1022
1023
1022
1022
1022
1022
1022
1022
1022
1022
1022
1022
1022
1022
1022
1022
1022
1022
1022
1022
1022
1022
1023
1022
1023
1023
1022
1022
1022
1022
1023
1022
1022
1022
1022
1023
1022
1023
1022
1022
1023
1022
1023
1022
1022
1023
1022
1023
1022
1022
1022
1022
1023
1022
1022
1023
1022
1022
1022
1022
1022
1022
1022
1022
1022
1022
1022
1022
1022
1010
977
916
865
875
828
780
734
695
696
729
800
894
949
1020
1022
1022
1023
1023
1022
1022
1022
1022
1022
1022
1022
1022
1022
1023
1022
1022
1023
1022
1022
1022
1022
1022
1022
1022
1022
1022
1022
1022
1022
1022
1022
1022
950
842
753
672
608
572
547
522
510
519
535
553
569
567
534
460
378
296
211
124
40
0
0
0
0
0
0
0
0
0
0
0
0
0
0
0
0
0
0
0
0
0
0
0
0
0
0
0
0
0
0
0
0
0
0
0
0
0
0
0
0
0
0
0
0
0
0
0
0
0
0
0
0
0
0
0
0
0
0
0
0
0
0
0
0
0
0
0
0
0
0
0
0
0
0
0
0
0
0
0
0
0
0
0
0
0
0
0
0
0
0
0
0
0
0
0
0
0
0
0
0
0
0
0
0
0
0
0
0
0
0
0
0
0
6
14
0
0
0
0
0
0
0
0
0
0
0
49
108
155
191
242
291
319
313
291
273
209
140
93
46
6
0
0
0
0
0
16
64
111
144
190
242
279
303
305
292
255
191
135
99
76
48
51
71
113
165
239
327
434
512
590
654
700
728
743
735
718
681
634
596
576
573
571
578
593
625
637
653
680
708
732
746
755
754
717
667
617
552
468
381
300
241
183
139
129
124
139
181
231
264
325
376
414
420
410
379
336
278
243
199
154
101
46
3
0
0
0
0
0
0
0
0
0
0
0
0
0
0
0
0
0
0
0
0
0
0
0
0
0
0
0
0
0
0
0
0
0
0
0
0
0
0
0
0
0
0
0
0
0
0
0
0
0
0
0
0
0
0
0
0
0
0
0
0
0
0
0
0
0
0
0
0
0
0
0
0
0
0
0
0
0
0
0
0
0
0
0
0
0
0
0
0
0
0
0
0
0
0
0
0
0
0
0
0
0
0
0
0
0
0
0
0
12
19
16
15
0
0
0
0
0
0
0
0
0
0
0
0
0
0
0
0
0
0
0
0
0
0
0
0
0
0
0
0
0
0
0
0
0
0
0
0
0
0
0
0
0
0
0
0
0
0
0
0
0
0
0
0
0
0
0
0
0
0
0
0
0
0
0
0
0
0
0
0
0
0
0
0
0
0
0
0
0
0
0
0
0
0
0
0
0
0
0
0
0
0
0
0
0
19
52
80
102
118
125
104
38
0
0
0
0
0
0
0
0
0
0
0
24
103
166
245
300
319
311
280
241
189
149
134
139
132
149
197
273
365
459
507
546
579
588
590
574
549
532
515
502
490
500
510
527
545
562
585
608
635
659
707
780
893
1008
1022
1022
1022
1022
1023
1022
1022
1022
1013
899
822
779
772
801
848
943
1022
1022
1022
1023
1022
1022
1022
1022
1023
1022
1022
1022
961
870
822
799
780
744
688
642
637
669
714
749
787
844
907
932
944
907
841
764
691
641
618
606
615
608
583
564
559
569
622
724
835
888
896
889
867
838
811
788
787
802
816
856
913
1002
1023
1022
1023
1022
1022
1022
1022
1022
1022
1023
1023
1022
1022
1022
1022
1023
1022
1022
1022
1022
1023
1022
1022
1023
1022
1023
1022
1022
1023
1022
1023
1022
1022
1022
1022
1023
1022
1022
1022
1022
1022
1022
1022
1023
1022
1023
1022
1022
1022
1022
1023
1022
1022
1022
1022
1023
1022
1023
1023
1022
1023
1022
1022
1023
1022
1023
1022
1022
1023
1022
1023
1022
1023
1022
1022
1022
1022
1022
1022
1022
1023
1022
1022
1023
1022
1023
1022
1022
1023
1022
1022
1022
1022
1022
1022
1023
1022
1022
1022
1022
1023
1022
1022
1023
1022
1023
1022
1023
1022
1022
1023
1022
1022
1022
1022
1023
1022
1022
1023
1022
1023
1022
1023
1022
1022
1023
1022
1022
1022
1022
1023
1022
1022
1022
1022
1023
1022
1022
1022
903
667
480
317
168
17
0
0
0
0
0
0
0
0
0
0
0
0
0
0
0
0
0
0
0
0
0
0
0
0
0
0
0
0
0
0
0
0
0
0
0
0
0
0
0
0
0
0
0
0
0
0
0
0
0
0
0
0
0
0
0
0
0
0
0
0
0
0
0
0
0
0
0
0
0
0
0
0
0
0
0
0
0
0
0
0
0
0
0
0
0
0
0
0
0
0
0
0
0
0
0
0
0
0
0
0
0
0
0
0
0
0
0
0
0
0
0
0
0
0
0
0
0
0
0
0
0
0
0
0
0
0
0
0
0
0
0
0
0
0
0
0
0
0
0
0
0
0
0
0
0
0
0
0
0
0
0
0
0
0
0
0
0
0
0
0
0
0
0
0
0
0
0
0
0
0
0
0
0
0
0
0
0
0
0
0
0
0
0
0
0
0
0
0
0
0
0
0
0
0
0
0
0
0
0
0
0
0
0
0
0
0
0
0
0
0
0
0
0
0
0
0
0
0
0
0
0
0
0
0
0
0
0
0
0
0
0
0
0
0
0
0
0
0
0
0
0
0
0
0
0
0
0
0
0
0
0
0
0
0
0
0
0
0
0
0
0
0
0
0
0
0
0
0
0
0
0
0
0
0
0
0
0
0
0
0
0
0
0
0
0
0
0
0
0
0
0
0
0
0
0
0
0
0
0
0
0
0
0
0
0
0
0
0
0
0
0
0
0
0
0
0
0
0
0
0
0
0
0
0
0
0
0
0
0
0
0
0
0
110
207
324
451
553
671
794
934
1022
1022
1023
1022
1023
1022
1022
1022
1022
1022
1022
1022
1022
1022
1023
1022
1022
1023
1022
1023
1022
1022
1022
1022
1023
1022
1023
1023
1022
1023
1022
1022
1022
1022
1022
1022
1022
1023
1022
1023
1022
1022
1023
1022
1023
1022
1023
1023
1022
1023
1022
1022
1023
1022
1023
1022
1022
1023
1022
1022
1022
1022
1023
1022
1023
1022
1022
1023
1022
1023
1022
1022
1023
1022
1023
1022
1022
1023
1022
1023
1022
1022
1023
1022
1022
1022
1022
1023
1022
1023
1022
1022
1023
1022
1023
1022
1023
1022
1022
1022
1022
1023
1023
1022
1022
1022
1022
1022
1022
1023
1022
1022
1022
1022
1023
1023
1022
1022
1022
1023
1022
1022
1023
1022
1023
1022
1022
1023
1022
1022
1022
1022
1023
1022
1023
1022
1022
1023
1022
1023
1022
1022
1023
1022
1023
1022
1023
1023
1022
1023
1022
1022
1023
1022
1023
1022
1023
1023
1022
1022
1022
1022
1022
1022
1022
1022
1022
1022
1022
1023
1022
1022
1022
1022
1023
1022
1022
1022
1022
1023
1022
1022
1023
1022
1023
1022
1022
1023
1022
1022
1022
1022
1022
1022
1023
1022
1022
1023
1022
1022
1022
1022
1022
1022
1023
1022
1022
1023
1022
1022
1022
1022
1022
1022
1022
1022
1022
1023
1022
1022
1022
1022
1023
1022
1023
1022
1022
1023
1022
1023
1022
1022
1023
1022
1022
1022
1022
1022
1022
1023
1022
1022
1022
1022
1023
1022
1022
1022
1022
1023
1022
1022
1022
1022
1023
1023
1022
1023
1022
1023
1022
1023
1023
1022
1023
1022
1022
1023
1022
1023
967
769
694
687
685
683
645
603
581
585
592
615
688
804
933
1021
1022
1022
1022
1022
1022
1022
1022
1022
1022
1022
1022
1023
1022
1023
1022
1022
1022
1022
1023
1022
1022
1022
1022
1023
1022
1022
1022
1022
1023
1022
1022
1022
1022
1023
1022
1022
1022
1022
1023
1022
1022
1022
1022
1023
1022
1022
1022
1022
1023
1022
1022
1023
1022
1023
1022
1023
1022
1022
1023
1022
1022
1023
1022
1023
1022
1022
1022
1022
1023
1022
1022
1023
1022
1023
1022
1022
1022
1022
1023
1022
1022
1022
1022
1023
1022
1022
1022
1022
1023
1022
1022
1023
1022
1023
1022
1022
1022
1022
1023
1022
1022
1022
1022
1023
1022
1022
1022
1022
1023
1022
1022
1022
1022
1023
1022
1022
1022
1022
1023
1022
1022
1023
1022
1023
1022
1023
1023
1022
1023
1022
1022
1023
1022
1023
1022
1022
1023
1022
1023
1022
1022
1022
1022
1023
1022
1023
1023
1022
1023
1022
1022
1023
1022
1023
1022
1022
1023
1022
1023
1022
1022
1023
1022
1023
1022
1022
1022
1022
1022
1022
1022
1022
1022
1022
1022
1022
1023
1022
1023
1022
1022
1022
1022
1023
1022
1022
1022
1022
1023
1022
1022
1022
1022
1023
1022
1022
1022
1022
1023
1022
1022
1022
1022
1022
1022
1022
1023
1022
1023
1022
1022
1023
1022
1022
1022
1022
1022
1022
1023
1022
1022
1022
1022
1023
1022
1022
1022
1022
1023
1022
1022
1023
1022
1023
1022
1022
1022
1022
1023
1022
1022
1022
1022
1023
1022
1022
1023
1022
1023
1022
1022
1023
1022
1023
1022
1023
1023
1022
1022
1022
1022
1022
1022
1023
1022
1022
1022
1022
1023
1022
1022
1022
1022
1022
1022
1022
1022
1022
1023
1022
1022
1022
1022
1023
1022
1022
1023
1022
1023
1022
1022
1022
1022
1023
1022
1022
1022
1022
1023
1022
1022
1022
1022
1023
1022
1022
1023
1022
1023
1022
1022
1022
1022
1023
1022
1022
1022
1022
1023
1022
1022
1022
1022
1023
1022
1022
1023
1022
1023
1022
1022
1022
1022
1023
1022
1022
1022
1022
1023
1022
1022
1022
1022
1023
1022
1023
1022
1022
1023
1022
1022
1023
1022
1023
1022
1022
1022
1022
1023
1022
1022
1022
1022
1023
1022
1022
1022
1022
1023
1022
1022
1022
1022
1023
1022
1022
1022
1022
1022
1022
1022
1022
1022
1023
1022
1022
1022
1022
1022
1022
1022
1023
1022
1022
1022
1022
1023
1022
1022
1022
1022
1022
1022
1022
1022
1022
1022
1022
1022
1022
1022
1022
1022
1023
1022
1022
1022
1022
1022
1022
1022
1022
1022
1023
1022
1022
1022
1022
1022
1022
1022
1022
1022
1022
1022
1022
1022
1022
1022
1022
1022
1022
1022
1022
1022
1022
1022
1022
1022
1022
1022
1022
1022
1022
1022
1022
1022
1022
1022
1022
1022
1022
1022
1021
1020
1018
1016
1013
1011
1009
1008
1005
1002
1001
999
996
994
991
991
988
986
983
981
979
977
975
973
971
969
966
964
962
960
959
957
955
953
950
949
947
945
943
941
940
937
935
934
931
931
928
926
924
922
921
919
917
916
913
912
910
908
907
905
903
901
899
898
896
895
893
891
889
888
887
885
883
881
879
878
876
875
872
871
870
867
866
865
863
862
860
859
857
856
854
853
851
850
848
847
846
844
843
839
840
838
837
835
833
833
831
830
828
827
826
824
823
821
820
819
816
816
815
812
812
811
810
808
807
806
804
803
801
800
799
798
796
796
793
793
792
791
789
788
787
785
784
783
782
781
780
779
777
776
775
774
773
772
770
769
768
768
766
765
764
763
761
760
759
759
758
756
755
754
753
752
751
750
749
749
747
746
745
744
743
742
741
740
738
739
737
736
735
734
733
732
731
730
729
729
728
727
726
724
724
723
722
721
720
719
719
718
716
716
715
714
713
712
711
711
710
709
708
707
707
705
705
704
703
702
702
700
700
699
698
697
696
696
695
695
694
693
692
691
691
689
689
688
688
687
687
686
684
684
684
683
681
681
679
680
679
678
677
677
676
675
675
674
674
673
672
671
671
670
670
669
668
667
667
667
665
665
664
663
663
662
662
660
659
659
659
658
657
657
657
656
655
655
654
654
653
653
652
651
651
650
649
649
647
648
647
647
646
646
645
644
645
644
643
642
642
641
641
640
639
639
639
638
637
637
636
636
635
635
635
634
634
633
632
633
632
632
630
630
630
629
628
628
627
627
627
626
626
624
625
624
624
623
381
97
0
0
0
0
0
120
237
329
390
348
348
380
443
493
531
560
582
599
611
621
604
215
0
0
0
0
0
0
0
0
0
0
0
0
0
0
0
0
0
0
0
0
0
0
0
0
0
0
0
0
0
0
0
1022
1023
1022
1022
1023
1022
1023
1022
1022
1023
1022
1023
1022
1023
1022
1022
1023
301
0
0
0
0
0
0
0
0
0
0
0
0
0
0
0
0
0
0
0
0
0
0
0
0
0
0
0
0
0
0
0
0
0
0
0
0
0
0
211
526
752
921
1018
1022
1022
1022
1022
1022
1022
1022
854
641
428
270
137
9
0
0
0
0
0
0
27
261
537
766
449
45
148
323
322
271
166
111
267
644
980
1022
1023
1022
1022
1022
1022
1023
1022
1022
1023
1022
1022
1022
1022
1022
1022
410
0
0
0
0
0
0
0
0
0
0
0
0
0
0
0
0
0
0
0
0
0
0
0
0
0
0
0
0
0
0
0
0
0
0
0
0
0
0
0
0
0
0
0
0
0
0
0
0
0
0
0
0
0
0
0
0
0
0
0
0
0
0
0
0
0
0
0
0
0
0
0
0
0
0
0
0
0
0
0
0
0
0
0
0
0
0
0
0
0
0
0
0
43
50
49
30
11
28
39
45
85
133
199
266
336
423
504
565
624
680
718
727
699
648
611
510
398
306
239
185
142
123
132
139
142
171
210
263
315
363
397
414
378
316
244
161
58
0
0
0
0
0
0
0
0
0
0
0
0
0
7
32
33
11
0
0
0
0
0
0
0
0
0
0
0
0
0
0
0
14
51
61
67
39
0
0
0
0
0
0
0
0
0
0
0
30
135
223
316
446
535
609
647
667
652
596
524
475
416
374
334
318
320
358
390
447
517
569
612
657
701
720
717
679
640
550
462
397
351
309
285
288
324
357
381
428
492
547
590
631
664
687
650
614
558
472
391
323
256
217
157
124
100
101
120
164
202
236
260
283
291
284
251
196
114
24
0
0
0
0
0
0
0
0
0
0
0
0
0
0
6
12
2
0
0
0
0
0
0
0
0
0
0
0
0
0
0
0
0
0
0
0
0
0
0
0
0
0
0
0
0
0
0
0
0
0
0
0
0
0
0
0
0
0
0
0
0
0
0
0
0
0
0
0
0
0
0
0
0
0
0
0
0
0
0
0
0
0
0
0
0
0
0
0
0
0
0
0
0
0
0
0
0
0
0
0
0
0
0
0
0
0
0
0
0
0
0
0
0
0
5
16
21
0
0
0
0
0
0
0
0
0
0
0
0
0
0
0
0
0
0
0
0
0
0
0
0
0
0
0
0
0
0
0
0
0
0
0
0
0
0
0
0
0
0
0
0
0
0
0
0
0
0
0
0
0
0
0
0
0
37
57
12
0
0
0
0
0
0
0
0
0
0
0
0
0
0
0
0
19
66
79
63
29
0
0
0
0
0
0
0
0
0
0
0
0
0
0
46
106
151
170
177
149
95
23
0
0
0
0
0
0
0
0
0
0
0
0
0
0
0
0
0
0
0
0
0
0
0
0
0
0
0
0
0
0
0
0
0
0
0
0
0
0
0
0
0
0
0
0
0
0
0
0
0
0
0
0
0
0
0
0
0
0
0
0
0
0
0
0
0
0
0
27
133
238
335
412
435
440
408
359
273
184
89
0
0
0
0
0
0
0
0
91
248
390
524
663
791
901
963
1004
1020
1010
977
936
908
904
908
908
918
969
1022
1022
1023
1022
1022
1022
1022
1022
1022
1022
1022
1022
1023
1022
663
249
0
0
0
0
0
0
0
0
0
0
0
0
0
0
182
338
461
495
488
561
665
771
867
973
1022
1022
1022
1022
1022
1022
1022
1023
1022
1023
1022
1022
1023
1022
1022
1023
1022
1023
1022
1022
1023
1022
1023
1022
1023
1023
1022
1022
1022
1022
1022
1022
1023
1022
1022
1022
1022
1023
1022
1022
1022
1022
1022
1022
1023
1022
1022
1023
1022
1022
1023
1022
1022
1022
1023
1023
1022
1022
1022
1023
1022
1022
1023
1022
1022
1023
1022
1022
1022
1022
1023
1022
1022
1022
1022
1022
1022
1023
1022
1022
1022
1022
1022
1022
1022
1022
1022
1023
1022
1022
1022
1022
1022
1022
1023
1022
1022
1023
1022
1022
1022
1022
1022
1022
1022
1023
1022
1022
1022
1023
1022
1022
1023
1022
1022
1023
1022
1022
1022
1022
1023
1022
1022
1022
1023
1022
1022
1023
1022
1022
1023
1022
1023
1022
1022
1022
1022
1022
1022
1022
1022
1022
1022
1022
1022
1022
1022
1022
1022
1022
1022
1022
1023
1022
1022
1023
1022
1022
1022
1022
1023
1022
1023
1022
1023
1023
1022
1022
1022
1022
287
0
0
0
0
0
0
0
0
0
0
0
0
0
0
0
0
0
0
0
0
0
0
0
0
0
0
0
0
0
0
0
0
0
0
0
0
0
0
0
0
0
0
0
0
0
0
0
0
0
0
0
0
0
0
0
0
0
0
0
0
0
0
0
0
0
0
0
0
0
0
0
0
0
0
0
0
0
0
0
0
0
0
0
0
0
0
0
0
0
0
0
0
0
0
0
0
0
0
0
0
0
0
0
0
0
0
0
0
0
0
0
0
0
0
0
0
0
0
0
0
0
0
0
0
0
0
0
0
0
0
0
0
0
0
0
0
0
0
0
0
0
0
0
0
0
0
0
0
0
0
0
0
0
0
0
0
0
0
0
0
0
0
0
0
0
0
0
0
0
0
0
0
0
0
0
0
0
0
0
0
0
0
0
0
0
0
0
0
0
0
0
0
0
0
0
0
0
0
0
0
0
0
0
0
0
0
0
0
0
0
0
0
0
0
0
0
0
0
0
0
0
0
0
0
0
0
0
0
0
0
0
0
0
0
0
0
0
0
0
0
0
0
0
0
0
0
0
0
0
0
0
0
0
0
0
0
0
0
0
0
0
0
0
0
0
0
0
0
0
0
0
0
0
0
0
0
0
0
0
0
0
0
0
0
0
0
0
0
0
0
0
0
0
0
0
0
0
0
0
0
0
0
0
0
0
0
0
0
0
0
0
0
0
0
0
0
0
0
0
0
0
0
0
0
0
0
0
0
0
0
0
0
0
0
0
0
0
0
0
0
0
0
0
0
0
0
0
0
0
0
0
0
0
0
0
0
0
0
0
0
0
0
0
0
0
0
0
0
0
0
0
0
0
0
0
0
0
0
0
0
0
0
0
0
0
0
0
0
0
0
0
0
0
0
0
0
0
0
0
0
0
0
0
0
0
0
0
0
0
0
0
0
0
0
0
0
0
0
22
53
74
91
72
54
44
35
36
51
79
128
199
256
337
419
498
568
633
690
752
785
825
840
831
811
806
803
819
824
859
898
949
998
1022
1022
1022
1022
1022
1022
1022
1022
1022
1022
1023
1022
1022
1022
1022
1022
1022
1022
1022
1022
1022
1022
1023
1022
1022
1022
1022
1022
1022
1022
1022
1022
1022
1022
1022
1022
1022
1022
1022
1022
1022
1022
1022
1022
1022
1022
1022
1022
1022
1022
1022
1023
1022
1022
1022
1022
1022
1023
1022
1022
1022
1022
1022
1022
1022
1022
1023
1022
1022
1022
1022
1022
1022
1022
1022
1022
1022
1022
1022
1022
1022
1022
1023
1022
1022
1022
1022
1022
1022
1023
1022
1022
1023
1022
1022
1022
1023
1023
1022
1022
1022
1023
1023
1022
1022
1022
1022
1022
1022
1022
1022
1023
1023
1022
1022
1022
1022
1022
1022
1022
1022
1023
1023
1022
1022
1022
1022
1022
1022
1022
1022
1022
1022
1022
1022
1022
1022
1022
1022
1022
1022
1023
1022
1022
1022
1022
1022
1022
1022
1022
1022
1022
1023
1022
1022
1022
1022
1022
1022
1022
1022
1022
1022
1022
1022
1022
1022
1022
1022
1022
1022
1023
1023
1022
1022
1022
1022
1023
1022
1023
1022
1022
1022
1022
1022
1022
1022
1022
1022
1022
1022
1022
1022
1022
1022
1022
1022
1022
1022
1023
1022
1022
1023
1022
1022
1022
1022
1022
1022
1022
1022
1022
1023
1022
1022
1022
1022
1022
1022
1022
1022
1022
1022
1022
1022
1022
1023
1022
1022
1022
1022
1022
1023
1022
1023
1022
1022
1022
1022
1022
1022
1023
1022
1022
1022
1022
1022
1022
1022
1022
1022
1022
1022
1022
1022
1023
1022
1022
1022
1022
1022
1023
1022
1022
1022
1022
1022
1022
1022
1022
1022
1022
1022
1022
1022
1022
1023
1022
1022
1023
1023
1022
1022
1022
1022
1022
1023
1022
1022
1022
1022
1022
1022
1022
1022
1022
1022
1022
1022
1022
1022
1022
1022
1022
1022
1022
1023
1022
1022
1022
1022
1023
1022
1022
1022
1022
1022
1022
1022
1023
1022
1022
1022
1022
1022
1022
1022
1022
1022
1022
1022
1022
1022
1022
1022
1022
1022
1022
1022
1022
1022
1022
1022
1022
1022
1022
1022
1022
1022
1022
1022
1022
1022
1022
1022
1022
1022
1022
1022
1022
1022
1022
1022
1022
1022
1022
1022
1022
1022
1023
1022
1022
1022
1022
1022
1022
1022
1022
1022
1022
1022
1022
1022
1022
1022
1022
1022
1022
1022
1022
1022
1022
1022
1022
1023
1022
1022
1022
1022
1022
1022
1022
1022
1022
1022
1022
1022
1022
1022
1022
1022
1022
1022
1022
1022
1022
1022
1022
1022
1022
1022
1022
1022
1022
1022
1022
1022
1022
1022
1022
1022
1022
1022
1022
1022
1022
1022
1022
1022
1022
1022
1022
1022
1022
1022
1022
1023
1022
1022
1022
1023
1022
1022
1022
1022
1022
1023
1022
1022
1022
1022
1022
1022
1022
1022
1022
1022
1022
1022
1022
1022
1023
1022
1022
1022
1022
1022
1022
1022
1023
1022
1023
1023
1022
1022
1022
1022
1022
1022
1022
1022
1022
1022
1022
1022
1022
1022
1022
1022
1022
1022
1023
1022
1022
1022
1022
1022
1022
1022
1022
1022
1023
1022
1022
1022
1022
1022
1023
1022
1022
1022
1022
1022
1022
1022
1022
1022
1022
1022
1022
1022
1022
1023
1022
1022
1022
1022
1022
1022
1022
1022
1022
1022
1022
1022
1022
1022
1022
1022
1022
1022
1022
1022
1022
1022
1022
1022
1022
1022
1022
1022
1022
1022
1022
1022
1022
1022
1022
1022
1022
1022
1022
1022
1022
1022
1022
1022
1022
1022
1022
1022
1022
1022
1022
1022
1022
1022
1022
1022
1022
1022
1022
1022
1022
1022
1022
1019
1014
1022
1022
1022
1022
1022
1022
1022
1022
1022
1022
1022
1022
1022
1022
1020
942
894
861
860
883
898
931
961
989
1014
1022
1022
1022
1022
1022
1022
974
916
867
821
782
758
739
752
764
768
797
837
877
911
940
982
994
980
948
911
863
802
748
695
645
585
536
503
488
502
523
561
606
619
644
679
699
687
649
610
557
476
390
323
252
180
127
86
70
74
64
71
74
67
68
73
63
49
0
0
0
0
0
0
0
0
0
0
0
0
0
0
0
0
0
0
0
0
0
0
0
0
0
0
0
0
0
0
0
0
0
0
0
0
0
0
0
0
0
0
0
0
0
0
0
0
0
0
0
0
0
0
0
0
0
0
0
0
0
0
0
0
0
0
0
0
0
0
0
0
0
0
0
0
0
0
0
0
0
0
0
0
0
0
0
0
0
0
0
0
0
0
0
0
0
0
0
0
0
0
0
0
0
0
0
0
0
0
0
0
0
0
0
0
0
0
0
0
0
0
0
0
0
0
0
0
0
0
0
0
0
0
0
0
0
0
0
0
0
0
0
0
0
0
0
0
0
0
0
0
0
0
0
0
0
0
0
0
0
0
0
0
0
0
0
0
0
0
0
0
0
0
0
0
0
0
0
0
0
0
0
0
0
0
0
0
0
0
0
0
0
0
0
0
0
0
0
0
0
0
0
0
0
0
0
0
0
0
0
0
0
0
0
0
0
0
0
0
0
0
0
0
0
0
0
0
0
0
0
0
0
40
125
190
246
336
412
430
504
548
512
467
440
474
479
423
372
390
440
563
1004
490
0
0
0
0
0
0
0
0
0
0
0
0
0
0
0
0
0
0
0
0
0
0
0
0
0
90
126
111
72
21
0
0
0
0
0
79
224
378
547
669
830
999
1022
1022
1022
1022
1023
1022
1022
1022
1022
1022
1022
1022
1022
1022
1022
1022
1022
1022
1023
1022
1022
1022
1022
1022
1022
1022
1022
1022
1022
1022
1022
1022
1022
1023
1022
1022
1022
1022
1022
1022
1022
1022
1022
1022
1022
1022
1022
1022
1022
1022
1022
1022
1022
1022
1022
1022
1022
1022
1022
1023
1022
1022
1022
1022
1022
1022
1023
1022
1022
1022
1022
1023
1022
1022
1022
1022
1022
1022
1022
1023
1022
1022
1022
1022
1023
1022
1022
1022
1023
1022
1022
1022
1022
1022
1022
1022
1022
1022
1022
1023
1022
1022
1022
1022
1022
1022
1022
1022
1022
1022
1022
1021
1007
1014
1022
1022
1022
1022
1022
896
648
391
128
0
0
0
0
0
0
0
0
0
0
122
342
567
802
987
1022
1022
1022
1022
1022
1022
1022
1022
1022
1022
1022
1022
1022
953
817
671
534
403
288
163
4
0
0
0
0
0
0
0
0
0
0
0
0
0
0
0
0
0
0
0
0
0
0
0
0
0
0
0
0
0
0
0
0
0
0
0
0
0
0
0
0
0
0
0
566
1022
1022
616
39
0
0
0
0
0
0
0
0
0
0
0
0
0
0
0
0
0
0
0
0
0
0
0
0
0
0
0
0
0
0
0
0
0
0
0
0
0
0
0
803
1022
1022
1022
1022
1022
1022
1022
1022
1022
1022
1022
1023
1022
1022
1022
1022
1022
1022
1022
1022
1022
1022
1022
1022
1022
1022
1022
1022
1022
1022
1022
1022
1022
1022
1022
1022
1023
1023
1022
1022
1022
1022
1022
1022
1022
1022
1022
929
790
543
229
0
0
0
0
0
0
0
0
0
0
0
0
0
0
0
0
0
0
0
0
150
317
545
814
1022
1022
1023
1022
1022
1023
1022
1022
1022
1022
1022
1022
1022
1022
1022
1022
1023
1022
1022
1022
1022
1022
1023
1022
1022
1023
1022
788
411
19
0
0
0
0
0
0
0
0
0
0
0
0
0
0
0
0
0
0
0
0
0
0
0
0
0
0
0
0
0
0
149
463
644
773
822
851
898
1022
1022
1022
1022
1022
1022
1022
1022
1022
1022
1023
1022
1022
1022
1022
1022
1022
1022
1022
1022
1022
1022
1022
1022
1022
893
822
771
704
647
601
522
403
262
118
0
0
0
0
0
0
0
0
0
0
0
0
0
0
0
0
0
0
0
0
0
0
0
0
0
0
0
0
0
0
0
0
0
0
0
0
0
0
0
0
0
73
71
0
0
0
0
0
0
0
0
0
0
0
0
0
0
0
0
0
0
22
422
599
543
329
45
0
0
0
0
0
0
0
0
0
1022
1022
1022
1023
1022
1022
1022
1022
1022
1022
1022
1022
110
0
0
0
0
0
1022
1022
1022
1022
1022
1022
1022
1022
1022
1022
1022
1023
1022
1022
1022
1022
1022
1022
1022
1022
1022
1023
1022
1022
1022
1022
1022
1022
1022
1022
1022
1023
1022
1022
1023
1022
1023
1022
1022
1022
1022
1022
1022
1022
1022
1022
1023
1022
1022
1022
1023
1022
1022
1022
1022
1022
1022
1022
903
720
505
276
70
0
0
0
0
0
0
0
0
0
0
0
0
0
0
0
0
0
0
0
0
0
0
0
0
0
0
0
0
0
0
0
0
0
0
0
0
1
42
50
89
151
189
192
179
131
64
28
19
52
79
120
144
212
311
387
467
547
645
765
906
1022
1022
1022
1022
1022
1022
1022
1022
1022
1022
1022
1022
1022
1022
1022
1022
1022
1023
1022
1022
1022
1022
1022
940
948
935
864
811
792
776
724
651
630
729
892
1022
1022
1022
1022
1022
1022
1022
1022
1022
1022
1022
1022
1022
1023
1022
1022
1022
1022
1022
1022
1022
1022
1022
1023
1022
1022
1022
1022
1023
1022
1022
1022
1023
1022
1022
1022
1022
1022
1022
1022
1022
1022
1022
1022
1022
1022
1022
1022
1022
1022
1022
1022
1022
834
525
239
0
0
0
0
0
0
0
0
0
0
0
0
0
0
0
0
0
0
0
0
0
0
0
0
0
0
0
0
0
0
0
0
0
0
0
0
0
0
0
113
250
400
598
788
948
1022
1022
1023
1022
1022
1022
1022
1022
1022
1022
1022
1022
1022
1022
1022
1022
1023
1022
1022
1022
1022
1022
1023
1022
1022
1023
1023
1022
1022
1022
1022
1023
1023
1022
1022
1022
1022
1022
1022
1022
1022
1023
1022
1022
1022
1022
1022
617
176
0
0
0
0
0
0
0
0
0
0
0
0
0
0
0
0
0
0
0
0
0
0
0
0
0
0
0
0
0
0
0
0
0
0
0
0
0
0
0
0
0
0
0
0
0
0
0
0
0
0
0
0
0
0
0
0
0
0
0
0
0
0
0
0
0
0
0
0
0
0
110
360
571
776
973
1022
1022
1022
1022
1022
1022
1022
1022
1022
1022
1022
1022
1022
1023
1022
1022
1022
1022
1022
1022
1022
1022
1023
1022
1022
1022
1022
1022
1022
1022
1022
1022
808
599
377
154
0
0
0
0
0
0
0
0
0
0
0
0
0
0
0
0
0
0
0
0
0
0
0
0
0
0
0
0
0
0
0
0
0
0
0
0
0
0
0
0
0
0
0
0
0
0
0
0
0
0
0
0
0
0
0
0
0
0
0
0
0
138
321
451
530
574
561
508
442
387
320
243
174
100
20
0
0
0
0
0
0
0
0
0
0
0
0
0
0
0
0
0
0
0
0
0
0
0
0
0
0
0
0
0
0
0
0
0
0
0
0
0
0
0
0
0
0
75
281
464
650
826
995
1022
1022
1022
1022
1023
1022
1022
1022
1023
1022
1022
1022
1022
1022
1022
1022
1022
1022
1022
1022
1022
1022
1022
1023
1022
1022
1022
1022
1022
1022
927
854
809
791
782
808
820
835
853
860
876
885
897
868
801
738
645
549
444
379
286
203
145
113
105
112
141
158
176
204
224
227
228
208
143
87
22
0
0
0
0
0
0
0
0
0
0
0
41
96
152
204
218
220
175
109
27
0
0
0
0
0
0
0
0
0
0
0
0
0
0
0
0
0
0
0
0
0
0
0
0
0
0
0
0
0
0
0
0
0
0
0
0
0
0
0
0
0
0
0
0
0
0
0
0
0
0
0
0
0
88
170
202
205
177
136
49
0
0
0
0
0
0
0
0
68
151
224
322
398
487
593
675
726
753
776
760
728
700
709
748
782
827
850
934
1022
1022
1022
1022
1022
1022
1022
1023
1023
1022
1022
1022
1022
1022
1023
1022
1022
1022
1022
1023
1022
1022
1022
1022
1023
1022
1022
1022
1022
1023
1022
1022
1022
946
876
855
842
841
885
931
991
1022
1022
1022
1023
1022
1022
1022
1023
1022
1022
1022
1022
1022
1022
976
891
842
852
870
873
902
953
992
1022
1022
1022
1022
1022
1022
903
768
655
546
474
439
417
433
487
549
589
639
717
803
900
1016
1022
1022
1022
1022
1022
977
931
868
801
747
695
687
736
823
908
1008
1022
1022
1022
1022
1022
1022
1022
1022
1022
1022
1022
1022
1022
1022
1022
1021
1022
1022
1022
1022
1022
1022
1022
1022
1022
1022
1022
1023
1022
1022
1022
1022
1022
1022
1022
1022
1022
1022
1022
1022
1022
1022
1023
1022
1022
1022
1023
1022
1022
1022
1022
1022
967
908
876
872
902
956
1021
1022
1022
1022
1023
1022
1022
1022
1022
1023
1022
1022
1022
1022
1022
980
922
886
883
912
962
1022
1022
1022
1022
1022
1022
1022
1022
1022
1022
1022
1022
1022
909
836
771
747
774
820
865
920
960
961
969
1002
1021
1021
1020
950
838
691
541
433
348
300
249
210
216
256
304
364
448
496
524
575
603
595
551
473
359
219
72
0
0
0
0
0
0
0
0
0
0
0
21
106
170
199
198
179
131
31
0
0
0
0
0
0
0
0
0
0
41
139
211
279
335
355
347
319
286
205
114
29
0
0
0
0
0
0
0
92
188
277
346
392
388
364
305
225
158
50
0
0
0
0
0
0
0
0
0
0
0
68
172
255
312
351
342
302
253
196
131
79
43
27
23
45
78
115
166
259
369
460
578
688
752
783
781
749
708
657
590
518
472
452
443
449
516
582
649
742
841
930
1014
1022
1022
1022
1022
1022
1022
995
931
853
794
746
703
679
704
750
786
852
920
974
1021
1022
1022
1022
1022
1022
1020
949
907
862
817
794
788
808
861
955
1022
1022
1022
1022
1023
1022
1022
1022
1023
1023
1022
1022
1022
1022
1022
1022
1022
1022
1022
1022
1022
1022
1022
1023
1022
1022
1022
1022
1022
1022
1022
1022
1022
1022
1023
1022
1022
1022
1023
1023
1022
1022
1022
1022
1023
1022
1022
1022
1023
1023
1022
1022
1022
1022
1022
966
928
930
957
994
1022
1022
1022
1022
1022
1022
1022
1022
1022
1022
1022
985
884
793
744
688
632
609
627
660
706
780
825
860
901
929
947
945
925
876
824
758
684
609
558
510
441
405
414
434
459
508
547
563
587
632
660
659
643
598
538
470
388
304
235
197
152
