0
0
0
339
1022
1023
1023
1023
1022
1022
1022
1023
1023
1023
1023
1022
1022
0
0
0
0
0
0
0
403
1022
1023
1022
1023
1022
1022
1022
1023
1023
1022
1022
1023
0
0
0
0
0
0
0
888
1022
1022
1022
1023
1022
1023
1023
1022
1023
1023
1022
1022
0
0
0
0
0
0
0
871
1022
1022
1023
1022
1023
1023
1023
1023
1022
1023
1022
1023
0
0
0
0
0
0
188
1022
1023
1022
1022
1023
1022
1023
1023
1022
1023
1022
1022
1022
0
0
0
0
0
0
0
813
1023
1022
1023
1022
1022
1023
1023
1023
1023
1022
1023
1023
5
0
0
0
0
0
0
177
1022
1022
1023
1022
1022
1023
1022
1023
1023
1022
1022
1022
0
0
0
0
0
0
0
361
1022
1022
1022
1023
1022
1023
1023
1022
1023
1022
1022
1023
0
0
0
0
0
0
0
820
1022
1023
1022
1023
1022
1022
1022
1022
1023
1022
1022
1023
0
0
0
0
0
0
0
790
1022
1022
1022
1023
1022
1022
1022
1022
1023
1022
1022
1023
0
0
0
0
0
0
0
209
1022
1022
1023
1022
1023
1022
1022
1023
1022
1022
1023
1022
0
0
0
0
0
0
0
0
956
1023
1023
1022
1022
1023
1022
1022
1022
1022
1022
1023
0
0
0
0
0
0
0
318
1022
1022
1022
1023
1022
1022
1023
1023
1023
1023
1023
1023
0
0
0
0
0
0
0
396
1022
1023
1022
1022
1023
1023
1022
1022
1023
1022
1023
1022
0
0
0
0
0
0
0
707
1023
1022
1022
1023
1023
1023
1023
1023
1023
1022
1023
1022
0
0
0
0
0
0
0
305
1022
1022
1023
1023
1023
1022
1022
1022
1022
1023
1023
1023
10
0
0
0
0
0
0
0
1010
1022
1022
1023
1022
1022
1023
1023
1022
1022
1022
1022
0
0
0
0
0
0
0
440
1022
1022
1023
1023
1022
1022
1023
1023
1022
1022
1023
1022
0
0
0
0
0
0
0
617
1023
1023
1023
1022
1022
1023
1022
1023
1023
1022
1023
1022
0
0
0
0
0
0
0
832
1022
1022
1022
1023
1023
1022
1023
1022
1023
1022
1022
1022
0
0
0
0
0
0
0
425
1022
1022
1022
1023
1022
1023
1022
1023
1022
1022
1022
1022
0
0
0
0
0
0
0
117
1022
1022
1023
1022
1023
1022
1022
1022
1022
1023
1022
1023
0
0
0
0
0
0
0
567
1023
1023
1022
1022
1022
1022
1023
1023
1022
1022
1022
1022
0
0
0
0
0
0
0
508
1022
1022
1022
1022
1023
1022
1022
1023
1022
1022
1022
1022
0
0
0
0
0
0
0
564
1023
1023
1022
1023
1022
1023
1023
1022
1023
1023
1023
1022
0
0
0
0
0
0
0
781
1023
1022
1022
1023
1022
1023
1023
1022
1023
1022
1022
1023
0
0
0
0
0
0
0
662
1023
1022
1023
1023
1022
1023
1023
1022
1023
1022
1022
1022
0
0
0
0
0
0
0
604
1023
1022
1022
1023
1022
1022
1023
1022
1023
1022
1022
1023
0
0
0
0
0
0
0
761
1023
1022
1022
1023
1022
1023
1022
1023
1022
1022
1022
1023
0
0
0
0
0
0
0
254
1022
1022
1023
1023
1022
1023
1023
1023
1022
1023
1023
1023
0
0
0
0
0
0
0
349
1022
1022
1023
1022
1023
1023
1023
1022
1023
1022
1022
1023
0
0
0
0
0
0
0
995
1023
1022
1022
1023
1022
1023
1022
1022
1022
1023
1023
1023
0
0
0
0
0
0
0
7
1019
1022
1022
1023
1022
1023
1022
1022
1022
1022
1023
1022
0
0
0
0
0
0
0
0
966
1022
1022
1022
1023
1022
1022
1022
1022
1022
1023
1023
0
0
0
0
0
0
0
0
0
756
1022
1022
1022
1022
1023
1023
1022
1023
1023
1022
0
0
0
0
0
0
0
0
610
1023
1022
1022
1023
1023
1023
1022
1023
1022
1022
1023
0
0
0
0
0
0
0
940
1023
1022
1023
1023
1022
1023
1022
1022
1023
1022
1023
1023
0
0
0
0
0
0
629
1022
1023
1022
1022
1023
1023
1022
1022
1023
1022
1023
1022
1023
0
0
0
0
0
0
494
1023
1023
1023
1022
1023
1023
1023
1023
1022
1022
1022
1022
1022
0
0
0
0
0
0
0
343
1022
1023
1022
1023
1023
1022
1022
1022
1023
1023
1023
1022
0
0
0
0
0
0
0
774
1023
1023
1022
1022
1022
1022
1022
1023
1022
1022
1022
1022
0
0
0
0
0
0
0
574
1023
1023
1023
1023
1022
1022
1023
1023
1023
1022
1023
1023
0
0
0
0
0
0
222
1022
1022
1022
1022
1023
1023
1023
1023
1022
1023
1022
1022
1022
0
0
0
0
0
0
216
1022
1023
1023
1022
1023
1023
1023
1022
1022
1023
1023
1022
1023
0
0
0
0
0
0
0
788
1023
1022
1022
1022
1022
1022
1022
1023
1023
1023
1022
1022
0
0
0
0
0
0
0
1015
1023
1022
1022
1023
1023
1022
1022
1022
1022
1023
1022
1022
0
0
0
0
0
0
0
224
1022
1023
1023
1022
1023
1022
1023
1022
1023
1023
1023
1022
0
0
0
0
0
0
298
1022
1022
1022
1023
1023
1023
1023
1023
1023
1023
1023
1022
1022
0
0
0
0
0
0
0
1001
1023
1022
1022
1023
1022
1023
1023
1023
1023
1022
1022
1022
0
0
0
0
0
0
0
472
1022
1022
1022
1023
1022
1023
1022
1022
1023
1023
1023
1022
0
0
0
0
0
0
0
710
1022
1022
1023
1023
1022
1023
1022
1022
1022
1022
1023
1022
0
0
0
0
0
0
0
0
858
1023
1023
1022
1022
1023
1022
1023
1023
1022
1022
1022
0
0
0
0
0
0
334
1022
1023
1022
1023
1022
1023
1022
1022
1023
1022
1022
1023
1022
0
0
0
0
0
0
0
536
1023
1022
1023
1022
1022
1022
1023
1022
1022
1022
1023
1022
0
0
0
0
0
0
0
224
1022
1022
1022
1022
1022
1023
1023
1022
1023
1022
1022
1022
0
0
0
0
0
0
0
1013
1022
1023
1022
1023
1023
1022
1022
1022
1023
1022
1023
1023
0
0
0
0
0
0
0
730
1023
1023
1023
1022
1023
1023
1022
1022
1023
1022
1023
1022
0
0
0
0
0
0
153
1022
1022
1023
1022
1022
1022
1022
1022
1023
1022
1022
1023
1022
0
0
0
0
0
0
65
1022
1023
1022
1023
1022
1022
1022
1022
1023
1022
1022
1022
1022
0
0
0
0
0
0
0
401
1022
1022
1023
1022
1022
1022
1022
1023
1022
1022
1023
1023
0
0
0
0
0
0
0
865
1022
1022
1022
1023
1022
1022
1023
1022
1022
1022
1023
1022
0
0
0
0
0
0
513
1022
1023
1022
1022
1023
1023
1022
1022
1022
1023
1022
1023
1022
0
0
0
0
0
0
0
955
1022
1022
1023
1023
1022
1022
1023
1023
1023
1023
1023
1022
0
0
0
0
0
0
71
1021
1023
1022
1022
1023
1022
1022
1022
1022
1022
1023
1023
1022
0
0
0
0
0
0
0
840
1023
1022
1022
1023
1022
1023
1022
1023
1023
1023
1023
1022
0
0
0
0
0
0
0
956
1023
1022
1022
1023
1023
1022
1022
1022
1022
1023
1023
1022
0
0
0
0
0
0
81
1022
1023
1022
1022
1022
1022
1022
1023
1023
1022
1022
1022
1022
0
0
0
0
0
0
0
606
1023
1023
1022
1023
1023
1022
1022
1023
1023
1023
1023
1022
0
0
0
0
0
0
0
999
1023
1023
1022
1023
1023
1023
1022
1022
1023
1022
1022
1022
0
0
0
0
0
0
0
830
1023
1022
1023
1022
1023
1022
1022
1023
1022
1023
1023
1022
0
0
0
0
0
0
70
1021
1023
1023
1023
1022
1022
1022
1023
1023
1023
1023
1022
1022
0
0
0
0
0
0
401
1022
1023
1023
1022
1023
1022
1023
1022
1022
1023
1023
1023
1022
0
0
0
0
0
0
0
691
1022
1022
1022
1023
1023
1022
1023
1022
1023
1022
1023
1022
0
0
0
0
0
0
0
869
1022
1022
1022
1023
1022
1022
1022
1022
1023
1022
1022
1022
0
0
0
0
0
0
0
455
1023
1022
1022
1022
1022
1022
1023
1023
1022
1022
1022
1022
0
0
0
0
0
0
0
912
1023
1022
1023
1023
1023
1022
1022
1022
1023
1022
1023
1023
0
0
0
0
0
0
67
1022
1023
1022
1023
1022
1022
1023
1022
1023
1022
1023
1022
1022
0
0
0
0
0
0
0
353
1022
1023
1023
1022
1022
1023
1022
1023
1023
1022
1022
1022
0
0
0
0
0
0
0
776
1023
1023
1022
1023
1023
1023
1023
1022
1023
1022
1022
1022
0
0
0
0
0
0
0
422
1023
1023
1022
1022
1023
1022
1023
1022
1022
1023
1022
1022
0
0
0
0
0
0
0
716
1022
1023
1023
1023
1022
1022
1023
1023
1023
1022
1022
1022
0
0
0
0
0
0
0
827
1022
1023
1023
1023
1022
1022
1023
1022
1023
1022
1023
1022
0
0
0
0
0
0
0
778
1022
1022
1022
1022
1023
1023
1023
1022
1022
1022
1022
1022
0
0
0
0
0
0
0
651
1022
1023
1023
1023
1023
1022
1022
1022
1023
1023
1023
1022
0
0
0
0
0
0
0
209
1022
1023
1022
1023
1023
1022
1022
1022
1023
1022
1023
1022
0
0
0
0
0
0
532
1023
1023
1023
1022
1022
1023
1022
1022
1022
1023
1022
1022
1022
0
0
0
0
0
0
0
838
1022
1022
1022
1022
1023
1022
1023
1023
1022
1023
1022
1022
0
0
0
0
0
0
0
618
1023
1023
1023
1023
1023
1022
1023
1023
1022
1022
1022
1021
0
0
0
0
0
0
66
1022
1023
1022
1023
1022
1023
1023
1023
1023
1023
1023
1022
1022
0
0
0
0
0
0
0
134
1022
1022
1023
1022
1023
1023
1022
1022
1022
1023
1022
1019
0
0
0
0
0
0
360
1022
1022
1023
1022
1022
1023
1023
1023
1023
1023
1023
1022
1022
0
0
0
0
0
0
0
752
1022
1022
1022
1023
1023
1022
1022
1022
1023
1023
1023
1022
0
0
0
0
0
0
0
610
1023
1023
1023
1022
1022
1023
1023
1022
1022
1022
1022
1022
0
0
0
0
0
0
0
811
1023
1022
1023
1022
1022
1023
1022
1023
1022
1022
1022
1022
0
0
0
0
0
0
0
675
1023
1022
1023
1022
1023
1022
1023
1022
1022
1023
1022
961
0
0
0
0
0
0
257
1022
1023
1022
1023
1023
1023
1023
1022
1022
1022
1023
1023
1022
0
0
0
0
0
0
0
918
1023
1022
1022
1022
1023
1022
1022
1023
1022
1023
1023
1022
0
0
0
0
0
0
0
615
1022
1023
1022
1023
1022
1022
1022
1022
1023
1023
1022
871
0
0
0
0
0
0
19
1020
1023
1022
1022
1022
1022
1023
1022
1023
1022
1023
1022
1020
0
0
0
0
0
0
611
1023
1023
1022
1022
1023
1023
1023
1023
1022
1023
1023
1022
1022
0
0
0
0
0
0
0
969
1022
1023
1023
1023
1023
1023
1022
1022
1022
1022
1022
969
0
0
0
0
0
0
121
1022
1022
1022
1022
1023
1023
1022
1022
1022
1022
1023
1022
1021
0
0
0
0
0
0
0
984
1023
1022
1022
1022
1022
1022
1023
1023
1022
1022
1022
983
0
0
0
0
0
0
0
839
1023
1023
1022
1023
1023
1023
1022
1022
1022
1023
1022
917
0
0
0
0
0
0
321
1023
1023
1023
1022
1022
1023
1022
1022
1022
1022
1022
1022
992
0
0
0
0
0
0
0
832
1022
1023
1022
1023
1023
1023
1022
1022
1023
1022
1022
977
0
0
0
0
0
0
162
1022
1022
1023
1023
1022
1023
1022
1023
1022
1022
1022
1022
913
0
0
0
0
0
0
0
814
1023
1022
1022
1023
1023
1022
1022
1022
1023
1023
1022
845
0
0
0
0
0
0
379
1023
1022
1022
1022
1022
1022
1023
1023
1022
1023
1022
1022
861
0
0
0
0
0
0
716
1023
1022
1022
1022
1022
1023
1023
1022
1022
1022
1022
1022
1022
0
0
0
0
0
0
0
654
1023
1022
1022
1022
1022
1022
1022
1023
1023
1023
1022
851
0
0
0
0
0
0
0
1006
1022
1022
1023
1023
1023
1022
1023
1022
1022
1022
1022
797
0
0
0
0
0
0
0
886
1023
1023
1022
1022
1022
1023
1022
1023
1022
1022
1023
851
0
0
0
0
0
0
0
857
1022
1022
1022
1023
1023
1022
1023
1022
1023
1023
1023
835
0
0
0
0
0
0
463
1023
1023
1022
1022
1022
1023
1023
1023
1022
1023
1022
1022
1007
0
0
0
0
0
0
0
832
1022
1023
1022
1023
1023
1022
1023
1022
1023
1023
1022
834
0
0
0
0
0
0
0
939
1022
1023
1023
1022
1023
1023
1022
1023
1022
1023
1022
804
0
0
0
0
0
0
0
703
1022
1022
1023
1022
1023
1023
1022
1023
1022
1022
1022
736
0
0
0
0
0
0
289
1022
1022
1022
1022
1022
1022
1023
1023
1023
1022
1022
1022
844
0
0
0
0
0
0
368
1022
1023
1023
1022
1023
1023
1022
1022
1022
1022
1023
1022
978
0
0
0
0
0
0
0
987
1023
1023
1022
1022
1022
1023
1022
1023
1022
1023
1022
791
0
0
0
0
0
0
56
1021
1022
1023
1022
1023
1023
1022
1023
1022
1022
1023
1022
788
0
0
0
0
0
0
0
570
1022
1023
1023
1023
1023
1023
1023
1022
1023
1023
1022
743
0
0
0
0
0
0
531
1023
1023
1022
1023
1023
1023
1023
1022
1022
1022
1023
1022
808
0
0
0
0
0
0
397
1023
1023
1022
1023
1022
1023
1023
1022
1023
1022
1022
1022
811
0
0
0
0
0
0
196
1022
1022
1023
1022
1023
1023
1022
1022
1023
1022
1022
1022
789
0
0
0
0
0
0
115
1022
1023
1022
1022
1023
1022
1023
1022
1022
1023
1022
1022
737
0
0
0
0
0
0
0
408
1022
1022
1023
1023
1023
1022
1023
1022
1022
1023
1022
600
0
0
0
0
0
0
638
1022
1022
1023
1022
1022
1022
1022
1022
1023
1022
1022
1022
767
0
0
0
0
0
0
518
1022
1023
1022
1022
1023
1022
1022
1022
1023
1022
1023
1022
999
0
0
0
0
0
0
0
809
1023
1022
1022
1022
1023
1023
1023
1023
1022
1022
1022
648
0
0
0
0
0
0
215
1022
1022
1023
1022
1022
1023
1023
1023
1023
1022
1023
1023
736
0
0
0
0
0
0
0
888
1023
1023
1022
1022
1023
1022
1023
1023
1022
1023
1022
672
0
0
0
0
0
0
456
1023
1023
1023
1023
1023
1023
1022
1023
1022
1022
1022
1023
702
0
0
0
0
0
0
186
1022
1023
1023
1022
1022
1023
1023
1023
1023
1022
1022
1022
768
0
0
0
0
0
0
240
1022
1022
1023
1022
1022
1023
1023
1022
1022
1022
1022
1022
677
0
0
0
0
0
0
358
1023
1023
1023
1022
1022
1022
1023
1023
1023
1022
1023
1022
716
0
0
0
0
0
0
667
1023
1023
1022
1022
1023
1023
1022
1023
1022
1022
1023
1023
697
0
0
0
0
0
0
369
1023
1022
1022
1022
1022
1023
1023
1022
1022
1022
1023
1023
649
0
0
0
0
0
0
638
1022
1022
1022
1022
1023
1022
1023
1022
1023
1023
1022
1023
736
0
0
0
0
0
0
252
1022
1022
1022
1023
1022
1023
1023
1022
1023
1022
1023
1022
588
0
0
0
0
0
0
591
1022
1023
1022
1023
1023
1023
1022
1022
1023
1022
1023
1023
620
0
0
0
0
0
0
1004
1023
1023
1023
1022
1023
1022
1023
1023
1023
1022
1023
1022
696
0
0
0
0
0
0
0
1003
1022
1022
1022
1023
1023
1023
1023
1022
1023
1022
1022
571
0
0
0
0
0
0
585
1022
1023
1023
1022
1022
1023
1023
1023
1022
1023
1023
1023
645
0
0
0
0
0
0
263
1022
1023
1023
1022
1022
1023
1023
1022
1023
1022
1023
1023
590
0
0
0
0
0
0
359
1023
1022
1023
1022
1022
1023
1023
1023
1023
1022
1023
1022
562
0
0
0
0
0
0
990
1023
1023
1023
1023
1022
1023
1022
1022
1022
1022
1023
1023
663
0
0
0
0
0
0
0
1000
1023
1022
1022
1022
1023
1022
1023
1023
1022
1022
1022
588
0
0
0
0
0
0
496
1023
1023
1022
1022
1022
1023
1023
1023
1022
1022
1022
1022
519
0
0
0
0
0
0
195
1022
1022
1022
1023
1022
1023
1023
1023
1022
1023
1022
1022
465
0
0
0
0
0
0
732
1023
1022
1023
1022
1023
1023
1022
1023
1022
1022
1023
1022
519
0
0
0
0
0
0
980
1023
1022
1023
1022
1023
1022
1023
1023
1023
1022
1023
1022
665
0
0
0
0
0
0
82
1021
1022
1022
1022
1022
1023
1022
1022
1022
1022
1022
1022
466
0
0
0
0
0
0
459
1023
1023
1023
1023
1022
1023
1022
1022
1023
1022
1023
1022
500
0
0
0
0
0
0
493
1023
1023
1023
1023
1022
1023
1023
1023
1022
1022
1023
1022
541
0
0
0
0
0
0
823
1023
1022
1023
1022
1022
1022
1022
1023
1023
1022
1022
1022
542
0
0
0
0
0
0
685
1022
1022
1022
1023
1023
1023
1022
1022
1022
1022
1022
1022
553
0
0
0
0
0
0
249
1023
1022
1022
1022
1022
1022
1023
1022
1023
1023
1022
1022
511
0
0
0
0
0
0
571
1022
1022
1023
1022
1023
1023
1022
1023
1022
1022
1022
1022
585
0
0
0
0
0
0
0
874
1022
1022
1022
1022
1023
1023
1023
1022
1022
1023
1022
388
0
0
0
0
0
0
822
1022
1023
1023
1022
1023
1023
1023
1023
1022
1022
1023
1022
532
0
0
0
0
0
0
623
1023
1022
1022
1023
1022
1023
1023
1023
1023
1022
1022
1022
578
0
0
0
0
0
0
469
1022
1023
1023
1022
1022
1023
1022
1023
1022
1022
1023
1022
457
0
0
0
0
0
0
433
1022
1023
1022
1023
1022
1023
1022
1023
1023
1023
1023
1022
517
0
0
0
0
0
0
0
898
1023
1022
1023
1022
1023
1022
1023
1022
1022
1022
1022
414
0
0
0
0
0
0
919
1022
1022
1023
1023
1022
1023
1022
1023
1022
1022
1022
1022
541
0
0
0
0
0
0
438
1023
1023
1023
1022
1023
1023
1022
1022
1022
1022
1022
1022
540
0
0
0
0
0
0
291
1023
1023
1022
1022
1022
1022
1023
1023
1023
1023
1023
1022
415
0
0
0
0
0
0
534
1022
1023
1022
1023
1023
1023
1022
1023
1022
1022
1022
1023
476
0
0
0
0
0
0
0
742
1023
1023
1022
1022
1022
1023
1023
1023
1022
1022
1023
311
0
0
0
0
0
0
927
1023
1023
1022
1022
1023
1023
1023
1022
1022
1022
1023
1022
464
0
0
0
0
0
0
707
1023
1022
1023
1022
1022
1023
1023
1023
1022
1022
1023
1022
573
0
0
0
0
0
0
277
1022
1022
1023
1023
1022
1023
1023
1022
1022
1022
1023
1023
363
0
0
0
0
0
0
833
1023
1022
1023
1022
1022
1023
1023
1023
1022
1022
1023
1022
439
0
0
0
0
0
0
714
1023
1022
1023
1023
1022
1023
1022
1023
1022
1023
1023
1022
431
0
0
0
0
0
0
689
1023
1023
1023
1022
1023
1023
1023
1023
1023
1022
1023
1022
397
0
0
0
0
0
0
529
1023
1023
1023
1023
1022
1023
1023
1022
1023
1022
1023
1022
417
0
0
0
0
0
0
672
1023
1023
1022
1023
1022
1023
1022
1023
1023
1022
1023
1023
360
0
0
0
0
0
0
929
1023
1022
1023
1022
1022
1023
1022
1022
1022
1022
1022
1022
399
0
0
0
0
0
245
1023
1023
1023
1022
1022
1022
1023
1023
1023
1022
1022
1022
1022
353
0
0
0
0
0
0
529
1023
1023
1023
1022
1023
1023
1022
1023
1023
1022
1022
1023
344
0
0
0
0
0
89
1021
1023
1023
1023
1023
1022
1023
1023
1023
1023
1022
1023
1023
459
0
0
0
0
0
0
579
1023
1023
1023
1023
1022
1023
1022
1023
1023
1022
1023
1023
269
0
0
0
0
0
0
975
1023
1023
1022
1022
1022
1023
1023
1023
1022
1022
1022
1023
315
0
0
0
0
0
300
1022
1023
1023
1023
1023
1022
1023
1023
1023
1022
1022
1023
1022
423
0
0
0
0
0
0
332
1023
1023
1023
1023
1022
1023
1022
1022
1023
1023
1023
1022
291
0
0
0
0
0
0
755
1023
1023
1022
1022
1022
1023
1023
1022
1023
1022
1023
1022
280
0
0
0
0
0
0
835
1022
1023
1023
1023
1022
1023
1023
1023
1022
1022
1023
1022
307
0
0
0
0
0
29
1009
1022
1022
1022
1023
1022
1023
1022
1023
1022
1022
1023
1022
276
0
0
0
0
0
327
1022
1023
1023
1023
1023
1022
1022
1023
1023
1023
1022
1023
1022
366
0
0
0
0
0
0
439
1022
1022
1023
1023
1022
1023
1022
1023
1023
1022
1023
1023
295
0
0
0
0
0
0
847
1023
1022
1022
1023
1022
1023
1023
1023
1023
1022
1022
1022
341
0
0
0
0
0
0
274
1022
1023
1022
1022
1022
1023
1022
1023
1022
1022
1023
1022
206
0
0
0
0
0
0
919
1023
1023
1022
1022
1022
1023
1022
1023
1023
1022
1023
1023
247
0
0
0
0
0
313
1022
1023
1022
1022
1023
1022
1023
1022
1022
1023
1022
1023
1022
374
0
0
0
0
0
0
280
1023
1023
1022
1022
1022
1023
1022
1023
1023
1022
1023
1022
216
0
0
0
0
0
0
641
1022
1022
1023
1023
1022
1023
1022
1023
1023
1022
1023
1022
357
0
0
0
0
0
0
334
1023
1023
1022
1023
1022
1023
1022
1022
1022
1022
1023
1023
229
0
0
0
0
0
0
836
1023
1023
1023
1022
1022
1022
1023
1023
1023
1022
1023
1022
302
0
0
0
0
0
0
923
1023
1023
1023
1023
1023
1023
1022
1023
1023
1023
1023
1022
295
0
0
0
0
0
0
641
1023
1023
1023
1023
1022
1023
1022
1023
1022
1022
1023
1022
247
0
0
0
0
0
0
705
1023
1023
1023
1023
1022
1023
1022
1023
1023
1022
1023
1022
446
0
0
0
0
0
0
9
1012
1023
1023
1023
1022
1023
1023
1022
1023
1022
1023
1022
150
0
0
0
0
0
199
1022
1023
1022
1023
1023
1023
1023
1022
1022
1022
1023
1023
1022
248
0
0
0
0
0
0
699
1023
1023
1022
1022
1022
1023
1022
1023
1023
1022
1023
1022
317
0
0
0
0
0
0
352
1023
1023
1023
1023
1022
1023
1022
1022
1023
1022
1023
1022
179
0
0
0
0
0
0
633
1023
1022
1023
1023
1023
1023
1023
1022
1023
1022
1023
1023
380
0
0
0
0
0
0
182
1022
1023
1023
1023
1022
1023
1022
1023
1023
1022
1023
1023
181
0
0
0
0
0
89
1022
1023
1023
1023
1023
1022
1023
1023
1023
1023
1022
1023
1023
243
0
0
0
0
0
0
577
1022
1023
1023
1023
1022
1023
1022
1023
1023
1022
1022
1022
342
0
0
0
0
0
0
0
993
1022
1023
1023
1023
1023
1023
1023
1023
1022
1023
1023
121
0
0
0
0
0
0
794
1023
1023
1022
1022
1023
1022
1023
1023
1023
1022
1023
1022
259
0
0
0
0
0
0
277
1022
1023
1023
1023
1023
1022
1022
1023
1023
1022
1023
1023
108
0
0
0
0
0
0
916
1023
1022
1022
1023
1022
1023
1022
1023
1023
1022
1022
1022
226
0
0
0
0
0
0
568
1023
1023
1022
1022
1022
1023
1023
1023
1022
1023
1023
1023
231
0
0
0
0
0
0
761
1023
1022
1022
1022
1023
1023
1023
1023
1023
1022
1022
1022
123
0
0
0
0
0
0
768
1023
1022
1023
1023
1022
1023
1023
1022
1022
1022
1022
1022
177
0
0
0
0
0
58
1019
1023
1023
1022
1023
1022
1023
1022
1022
1023
1022
1022
1022
202
0
0
0
0
0
0
662
1023
1022
1022
1023
1022
1023
1022
1022
1023
1022
1023
1022
130
0
0
0
0
0
0
888
1023
1022
1023
1023
1022
1023
1023
1023
1023
1022
1023
1022
135
0
0
0
0
0
0
793
1023
1023
1023
1023
1022
1023
1022
1023
1023
1022
1023
1022
149
0
0
0
0
0
0
961
1023
1023
1022
1022
1023
1023
1023
1022
1023
1022
1022
1022
146
0
0
0
0
0
0
901
1023
1022
1023
1023
1023
1022
1023
1022
1022
1022
1023
1023
95
0
0
0
0
0
0
591
1023
1023
1022
1023
1022
1023
1022
1023
1023
1023
1022
1022
108
0
0
0
0
0
0
937
1023
1023
1022
1023
1022
1023
1022
1023
1023
1022
1023
1023
218
0
0
0
0
0
0
475
1023
1022
1023
1023
1022
1023
1022
1022
1023
1022
1022
1022
24
0
0
0
0
0
54
1018
1023
1023
1022
1023
1023
1022
1022
1023
1022
1022
1023
1023
31
0
0
0
0
0
234
1022
1023
1022
1022
1023
1022
1023
1023
1023
1023
1022
1022
1022
189
0
0
0
0
0
0
59
1019
1022
1022
1023
1023
1023
1022
1022
1022
1022
1023
1022
65
0
0
0
0
0
0
701
1023
1023
1023
1023
1023
1023
1022
1022
1023
1023
1023
1022
145
0
0
0
0
0
0
625
1023
1022
1023
1023
1022
1023
1023
1023
1023
1022
1023
1023
44
0
0
0
0
0
0
952
1023
1023
1023
1023
1022
1023
1022
1023
1023
1022
1023
1022
89
0
0
0
0
0
0
946
1023
1023
1022
1023
1023
1023
1022
1022
1023
1022
1023
1023
88
0
0
0
0
0
0
325
1023
1022
1023
1023
1022
1022
1022
1023
1023
1022
1023
1023
6
0
0
0
0
0
0
902
1022
1023
1023
1023
1023
1023
1022
1022
1022
1022
1023
1022
229
0
0
0
0
0
0
267
1023
1022
1022
1023
1022
1023
1023
1022
1022
1022
1023
1022
21
0
0
0
0
0
0
672
1023
1022
1022
1023
1022
1023
1023
1022
1023
1022
1023
1022
20
0
0
0
0
0
0
936
1023
1023
1022
1023
1022
1023
1023
1023
1023
1022
1023
1022
131
0
0
0
0
0
0
432
1023
1022
1023
1023
1022
1023
1022
1023
1022
1022
1023
1022
55
0
0
0
0
0
0
604
1023
1022
1022
1023
1022
1023
1023
1023
1023
1022
1023
1022
200
0
0
0
0
0
0
253
1022
1022
1023
1023
1023
1023
1023
1022
1023
1022
1023
1022
2
0
0
0
0
0
70
1021
1023
1023
1023
1023
1022
1023
1022
1022
1022
1022
1023
1023
108
0
0
0
0
0
0
587
1023
1023
1023
1023
1022
1023
1023
1023
1023
1022
1022
1022
70
0
0
0
0
0
0
288
1023
1023
1023
1023
1022
1023
1023
1023
1023
1022
1023
1022
1
0
0
0
0
0
0
479
1023
1022
1023
1023
1022
1023
1022
1023
1023
1022
1023
1022
293
0
0
0
0
0
0
0
898
1023
1023
1023
1022
1023
1022
1023
1023
1022
1023
1022
0
0
0
0
0
0
0
991
1023
1022
1022
1022
1022
1023
1022
1023
1022
1022
1023
1023
31
0
0
0
0
0
0
699
1023
1023
1022
1023
1022
1023
1022
1023
1023
1022
1023
1022
132
0
0
0
0
0
0
0
975
1022
1023
1023
1022
1023
1022
1023
1023
1022
1023
1022
0
0
0
0
0
0
0
517
1023
1022
1022
1023
1022
1023
1023
1023
1023
1022
1023
1022
229
0
0
0
0
0
0
192
1023
1022
1023
1023
1022
1023
1023
1022
1023
1022
1023
1022
0
0
0
0
0
0
34
1020
1023
1022
1022
1023
1022
1023
1022
1022
1022
1022
1023
1023
64
0
0
0
0
0
0
460
1023
1022
1022
1022
1022
1023
1023
1022
1022
1022
1023
1022
19
0
0
0
0
0
0
470
1023
1023
1022
1023
1022
1023
1022
1023
1023
1022
1022
1023
0
0
0
0
0
0
0
864
1023
1022
1023
1023
1022
1023
1023
1023
1023
1022
1023
1022
22
0
0
0
0
0
0
884
1023
1022
1023
1023
1022
1023
1022
1023
1023
1022
1023
1022
0
0
0
0
0
0
0
849
1023
1022
1022
1023
1022
1023
1023
1022
1022
1022
1022
1022
0
0
0
0
0
0
0
949
1023
1022
1022
1022
1022
1023
1022
1023
1023
1022
1023
1023
0
0
0
0
0
0
0
595
1023
1023
1022
1023
1022
1023
1023
1022
1023
1022
1022
1023
0
0
0
0
0
0
0
885
1023
1022
1022
1022
1022
1023
1023
1022
1022
1022
1023
1022
0
0
0
0
0
0
229
1022
1023
1022
1023
1023
1022
1023
1023
1022
1023
1022
1023
1022
0
0
0
0
0
0
0
606
1023
1022
1023
1023
1022
1023
1023
1023
1023
1022
1023
1022
0
0
0
0
0
0
103
1022
1022
1022
1023
1023
1022
1023
1023
1023
1023
1022
1023
1022
0
0
0
0
0
0
0
684
1023
1023
1023
1022
1023
1023
1022
1023
1022
1022
1023
1022
0
0
0
0
0
0
191
1022
1023
1023
1022
1023
1022
1023
1023
1022
1023
1022
1023
1022
0
0
0
0
0
0
0
1003
1023
1023
1023
1022
1022
1022
1022
1023
1023
1022
1023
1022
0
0
0
0
0
0
0
379
1023
1022
1023
1023
1022
1023
1023
1023
1023
1022
1023
1022
0
0
0
0
0
0
35
1017
1023
1022
1022
1023
1022
1023
1023
1023
1023
1022
1023
1022
12
0
0
0
0
0
0
744
1023
1022
1023
1023
1023
1023
1022
1022
1022
1023
1023
1022
0
0
0
0
0
0
0
939
1023
1022
1023
1023
1022
1023
1023
1022
1022
1022
1023
1022
0
0
0
0
0
0
279
1022
1023
1022
1023
1023
1022
1023
1023
1022
1022
1022
1023
1023
0
0
0
0
0
0
0
523
1023
1023
1022
1023
1022
1023
1022
1023
1023
1022
1023
1022
0
0
0
0
0
0
0
757
1023
1022
1023
1023
1022
1023
1022
1023
1023
1022
1023
1022
0
0
0
0
0
0
0
818
1023
1023
1023
1023
1022
1023
1022
1022
1023
1022
1023
1022
0
0
0
0
0
0
505
1023
1023
1022
1023
1023
1023
1023
1022
1023
1022
1022
1023
1022
0
0
0
0
0
0
327
1022
1023
1023
1023
1023
1022
1023
1022
1023
1023
1022
1023
1022
0
0
0
0
0
0
0
545
1023
1022
1022
1023
1023
1023
1022
1023
1023
1022
1022
1023
0
0
0
0
0
0
34
1017
1023
1023
1022
1023
1022
1023
1023
1023
1023
1022
1023
1022
0
0
0
0
0
0
0
475
1023
1022
1023
1023
1022
1023
1022
1023
1022
1023
1023
1022
0
0
0
0
0
0
344
1022
1023
1022
1023
1023
1022
1023
1023
1023
1023
1022
1023
1022
0
0
0
0
0
0
183
1022
1023
1022
1023
1023
1022
1023
1022
1023
1023
1022
1023
1022
0
0
0
0
0
0
0
638
1023
1022
1022
1023
1022
1023
1023
1023
1023
1022
1023
1022
0
0
0
0
0
0
0
839
1023
1023
1022
1023
1022
1023
1023
1023
1023
1022
1023
1023
0
0
0
0
0
0
0
181
1023
1023
1023
1022
1022
1023
1023
1023
1023
1022
1023
1022
0
0
0
0
0
0
473
1022
1023
1022
1023
1023
1022
1023
1022
1023
1023
1022
1023
1022
0
0
0
0
0
0
0
863
1023
1022
1023
1023
1022
1023
1022
1023
1023
1022
1023
1022
0
0
0
0
0
0
0
466
1023
1023
1022
1022
1023
1023
1022
1022
1022
1022
1023
1022
0
0
0
0
0
0
215
1022
1023
1022
1022
1022
1023
1023
1022
1023
1023
1022
1023
1022
0
0
0
0
0
0
0
309
1023
1023
1022
1023
1022
1023
1023
1022
1022
1022
1023
1022
0
0
0
0
0
0
248
1022
1023
1023
1022
1023
1022
1023
1023
1023
1023
1022
1023
1022
0
0
0
0
0
0
0
841
1023
1023
1023
1023
1022
1023
1022
1023
1023
1022
1023
1023
0
0
0
0
0
0
0
377
1023
1022
1023
1023
1022
1023
1023
1023
1023
1022
1023
1022
0
0
0
0
0
0
0
1005
1023
1022
1023
1023
1022
1023
1022
1023
1023
1022
1023
1022
0
0
0
0
0
0
330
1023
1023
1022
1023
1023
1022
1023
1023
1023
1023
1022
1023
1022
0
0
0
0
0
0
2
1013
1023
1022
1023
1023
1022
1023
1023
1023
1023
1022
1023
1022
0
0
0
0
0
0
93
1022
1023
1023
1023
1023
1022
1023
1022
1023
1023
1022
1023
1022
0
0
0
0
0
0
0
619
1023
1023
1023
1023
1022
1023
1023
1023
1023
1022
1023
1022
0
0
0
0
0
0
170
1022
1023
1023
1023
1023
1022
1023
1022
1023
1023
1022
1022
1022
0
0
0
0
0
0
159
1022
1022
1023
1023
1023
1023
1023
1022
1022
1023
1022
1023
1022
0
0
0
0
0
0
0
629
1023
1022
1022
1022
1022
1023
1022
1023
1023
1022
1023
1022
0
0
0
0
0
0
340
1022
1023
1023
1023
1023
1022
1023
1022
1022
1023
1022
1023
1022
0
0
0
0
0
0
0
834
1023
1022
1022
1023
1022
1023
1022
1023
1023
1022
1023
1022
0
0
0
0
0
0
0
881
1023
1022
1023
1023
1022
1023
1022
1023
1023
1022
1023
1022
0
0
0
0
0
0
266
1022
1023
1023
1022
1023
1022
1022
1023
1023
1023
1022
1023
1022
0
0
0
0
0
0
0
554
1023
1023
1023
1022
1022
1023
1023
1022
1022
1022
1023
1022
0
0
0
0
0
0
0
794
1023
1023
1022
1022
1022
1022
1023
1023
1022
1022
1023
1022
0
0
0
0
0
0
0
684
1023
1022
1023
1023
1022
1023
1023
1022
1023
1023
1023
1022
0
0
0
0
0
0
273
1022
1023
1023
1023
1023
1022
1023
1022
1023
1023
1022
1023
1022
0
0
0
0
0
0
84
1022
1023
1023
1023
1023
1022
1023
1023
1023
1023
1022
1023
1022
0
0
0
0
0
0
0
329
1023
1022
1023
1022
1022
1023
1023
1023
1023
1022
1023
1022
0
0
0
0
0
0
0
946
1022
1023
1023
1023
1022
1023
1023
1022
1023
1023
1023
1022
0
0
0
0
0
0
0
469
1023
1022
1022
1023
1022
1023
1022
1023
1023
1022
1023
1022
0
0
0
0
0
0
0
841
1023
1022
1023
1023
1022
1023
1023
1023
1023
1022
1023
1022
0
0
0
0
0
0
0
964
1023
1022
1023
1023
1022
1023
1023
1023
1023
1022
1023
1022
0
0
0
0
0
0
0
638
1023
1022
1023
1023
1022
1023
1022
1023
1023
1022
1023
1022
0
0
0
0
0
0
0
808
1023
1023
1022
1022
1022
1023
1023
1023
1023
1023
1022
1022
0
0
0
0
0
0
0
0
997
1022
1023
1023
1022
1023
1022
1022
1023
1022
1023
1022
0
0
0
0
0
0
160
1022
1023
1022
1023
1022
1022
1023
1022
1022
1023
1022
1022
1022
0
0
0
0
0
0
0
808
1023
1022
1022
1023
1022
1023
1023
1023
1023
1022
1023
1022
0
0
0
0
0
0
0
680
1023
1023
1023
1023
1022
1023
1022
1023
1023
1022
1023
1022
0
0
0
0
0
0
0
711
1023
1022
1023
1023
1023
1023
1022
1023
1023
1022
1022
1022
0
0
0
0
0
0
0
0
1008
1022
1022
1023
1022
1023
1022
1023
1023
1022
1022
1022
0
0
0
0
0
0
80
1022
1023
1023
1022
1023
1023
1023
1022
1023
1023
1022
1023
1022
0
0
0
0
0
0
0
675
1022
1023
1023
1022
1022
1023
1023
1022
1023
1022
1023
1022
0
0
0
0
0
0
0
247
1023
1023
1023
1022
1022
1023
1022
1023
1022
1022
1023
1022
0
0
0
0
0
0
0
751
1023
1022
1022
1023
1022
1023
1022
1023
1023
1022
1023
1022
0
0
0
0
0
0
0
0
1019
1023
1023
1023
1022
1023
1022
1023
1023
1022
1023
1022
0
0
0
0
0
0
340
1022
1023
1022
1023
1023
1022
1023
1022
1023
1023
1022
1023
1022
0
0
0
0
0
0
0
729
1023
1022
1023
1023
1023
1023
1022
1023
1022
1022
1023
1022
0
0
0
0
0
0
0
480
1022
1022
1023
1023
1023
1023
1022
1023
1022
1022
1023
1022
0
0
0
0
0
0
0
901
1023
1023
1022
1022
1022
1023
1023
1023
1023
1022
1023
1022
0
0
0
0
0
0
324
1022
1023
1023
1023
1023
1022
1023
1023
1023
1023
1022
1023
1022
0
0
0
0
0
0
0
833
1023
1022
1023
1023
1022
1023
1023
1023
1022
1022
1023
1022
0
0
0
0
0
0
179
1022
1023
1022
1023
1023
1022
1023
1023
1023
1022
1022
1023
1022
0
0
0
0
0
0
0
697
1023
1023
1022
1023
1022
1023
1023
1023
1023
1022
1023
1022
0
0
0
0
0
0
0
930
1023
1023
1022
1022
1022
1023
1023
1022
1023
1022
1023
1022
0
0
0
0
0
0
286
1022
1023
1022
1023
1022
1023
1023
1022
1023
1023
1022
1023
1022
0
0
0
0
0
0
0
689
1022
1023
1023
1023
1022
1023
1022
1023
1023
1022
1023
1022
0
0
0
0
0
0
0
958
1023
1022
1023
1023
1022
1023
1023
1023
1023
1022
1022
1022
0
0
0
0
0
0
0
738
1023
1023
1023
1022
1022
1023
1023
1022
1022
1022
1023
1007
0
0
0
0
0
0
164
1022
1023
1022
1023
1023
1022
1023
1023
1023
1023
1022
1023
1022
0
0
0
0
0
0
185
1022
1023
1022
1023
1023
1022
1023
1022
1022
1023
1022
1022
1022
0
0
0
0
0
0
0
417
1023
1022
1022
1023
1023
1023
1022
1023
1023
1022
1023
1021
0
0
0
0
0
0
15
1019
1023
1022
1023
1023
1022
1023
1023
1023
1023
1022
1023
1021
0
0
0
0
0
0
0
656
1023
1022
1023
1023
1022
1023
1022
1023
1023
1022
1023
1018
0
0
0
0
0
0
0
963
1023
1022
1023
1023
1022
1023
1023
1022
1022
1022
1023
1020
0
0
0
0
0
0
274
1022
1023
1023
1023
1023
1023
1023
1022
1022
1023
1022
1023
1022
0
0
0
0
0
0
0
701
1023
1022
1022
1022
1022
1023
1022
1022
1023
1022
1023
1022
0
0
0
0
0
0
0
939
1023
1023
1023
1023
1022
1023
1022
1023
1023
1022
1023
1021
0
0
0
0
0
0
0
485
1023
1022
1023
1023
1022
1023
1022
1023
1023
1023
1023
897
0
0
0
0
0
0
0
0
585
1022
1023
1023
1022
1023
1022
1023
1023
1022
1023
892
0
0
0
0
0
0
133
1022
1023
1022
1022
1023
1022
1023
1023
1022
1022
1022
1023
1022
0
0
0
0
0
0
0
613
1023
1023
1023
1022
1022
1023
1022
1023
1022
1022
1023
965
0
0
0
0
0
0
0
1002
1023
1023
1022
1023
1022
1023
1022
1023
1023
1022
1023
1022
0
0
0
0
0
0
0
521
1023
1023
1023
1023
1022
1023
1022
1023
1023
1022
1023
931
0
0
0
0
0
0
154
1022
1023
1023
1022
1023
1022
1023
1022
1023
1023
1022
1023
967
0
0
0
0
0
0
0
862
1023
1023
1023
1023
1022
1023
1023
1023
1023
1022
1023
1022
0
0
0
0
0
0
0
853
1023
1022
1023
1023
1022
1023
1023
1023
1023
1022
1023
971
0
0
0
0
0
0
0
811
1023
1023
1023
1023
1023
1023
1023
1023
1023
1022
1023
1019
0
0
0
0
0
0
0
0
970
1023
1023
1022
1022
1023
1023
1023
1023
1022
1023
794
0
0
0
0
0
0
456
1022
1023
1023
1023
1023
1023
1023
1022
1023
1023
1022
1023
998
0
0
0
0
0
0
0
938
1023
1022
1023
1023
1022
1023
1023
1023
1023
1022
1023
1022
0
0
0
0
0
0
0
286
1023
1022
1022
1023
1022
1023
1022
1022
1022
1022
1023
775
0
0
0
0
0
0
0
1014
1023
1022
1023
1023
1022
1022
1022
1023
1023
1023
1023
922
0
0
0
0
0
0
0
313
1023
1022
1023
1023
1023
1023
1023
1023
1022
1022
1023
808
0
0
0
0
0
0
172
1022
1023
1022
1022
1022
1022
1023
1023
1023
1023
1022
1022
884
0
0
0
0
0
0
0
869
1023
1022
1023
1023
1023
1023
1022
1023
1023
1022
1023
1009
0
0
0
0
0
0
0
673
1023
1022
1023
1023
1022
1023
1023
1023
1023
1022
1023
855
0
0
0
0
0
0
0
944
1023
1022
1022
1023
1022
1023
1022
1023
1023
1022
1023
877
0
0
0
0
0
0
151
1022
1023
1022
1022
1022
1022
1023
1022
1023
1023
1022
1023
829
0
0
0
0
0
0
148
1022
1023
1022
1022
1022
1023
1023
1023
1023
1023
1022
1023
840
0
0
0
0
0
0
217
1022
1023
1023
1022
1022
1022
1023
1022
1023
1023
1022
1023
963
0
0
0
0
0
0
0
800
1023
1022
1023
1023
1022
1023
1023
1023
1023
1022
1023
735
0
0
0
0
0
0
0
956
1023
1022
1023
1023
1022
1023
1022
1023
1023
1022
1023
755
0
0
0
0
0
0
455
1022
1023
1022
1023
1022
1022
1023
1022
1022
1023
1022
1023
847
0
0
0
0
0
0
0
828
1023
1023
1022
1023
1022
1022
1023
1023
1023
1022
1023
739
0
0
0
0
0
0
443
1022
1023
1022
1023
1023
1023
1022
1023
1023
1022
1023
1023
807
0
0
0
0
0
0
0
935
1023
1022
1022
1023
1022
1023
1023
1023
1023
1022
1023
732
0
0
0
0
0
0
0
982
1023
1023
1023
1023
1022
1023
1022
1023
1023
1022
1023
691
0
0
0
0
0
0
471
1022
1023
1022
1022
1023
1023
1023
1022
1023
1023
1022
1022
778
0
0
0
0
0
0
0
782
1023
1022
1022
1023
1022
1023
1022
1022
1023
1022
1023
741
0
0
0
0
0
0
277
1022
1023
1022
1023
1023
1022
1022
1023
1023
1023
1022
1023
657
0
0
0
0
0
0
0
689
1023
1023
1023
1023
1022
1022
1022
1023
1022
1022
1023
557
0
0
0
0
0
0
240
1022
1023
1023
1023
1023
1022
1023
1022
1023
1022
1022
1023
704
0
0
0
0
0
0
517
1022
1023
1023
1022
1023
1022
1023
1022
1023
1023
1022
1023
772
0
0
0
0
0
0
0
633
1023
1023
1023
1023
1022
1023
1022
1023
1023
1022
1023
609
0
0
0
0
0
0
206
1022
1023
1022
1023
1023
1022
1023
1023
1022
1023
1022
1023
671
0
0
0
0
0
0
0
889
1023
1023
1022
1023
1022
1023
1023
1022
1023
1022
1022
638
0
0
0
0
0
0
198
1022
1023
1023
1023
1022
1023
1023
1023
1022
1023
1022
1022
667
0
0
0
0
0
0
303
1022
1023
1022
1023
1023
1022
1023
1022
1022
1022
1022
1023
673
0
0
0
0
0
0
269
1022
1023
1022
1023
1023
1023
1023
1022
1023
1023
1022
1023
643
0
0
0
0
0
0
880
1023
1023
1022
1023
1023
1022
1023
1023
1023
1023
1022
1023
654
0
0
0
0
0
0
0
792
1023
1022
1022
1023
1022
1023
1022
1023
1023
1022
1023
479
0
0
0
0
0
0
585
1022
1023
1023
1023
1022
1022
1023
1022
1022
1023
1022
1023
565
0
0
0
0
0
0
332
1022
1023
1022
1022
1023
1022
1023
1023
1023
1023
1022
1023
716
0
0
0
0
0
0
0
1013
1023
1022
1023
1023
1022
1023
1022
1023
1023
1022
1023
529
0
0
0
0
0
0
94
1022
1023
1022
1023
1023
1022
1023
1022
1023
1023
1022
1023
618
0
0
0
0
0
0
0
491
1023
1022
1023
1023
1022
1023
1023
1023
1023
1022
1023
531
0
0
0
0
0
0
714
1022
1023
1022
1023
1023
1022
1022
1022
1023
1023
1022
1022
626
0
0
0
0
0
0
287
1022
1023
1022
1022
1023
1022
1022
1022
1023
1023
1022
1023
631
0
0
0
0
0
0
89
1022
1023
1022
1022
1023
1022
1023
1023
1022
1022
1022
1023
505
0
0
0
0
0
0
390
1022
1023
1022
1022
1023
1022
1023
1023
1022
1023
1022
1022
599
0
0
0
0
0
0
0
568
1023
1022
1023
1023
1023
1023
1023
1023
1023
1022
1022
398
0
0
0
0
0
0
743
1022
1023
1022
1023
1023
1022
1023
1023
1023
1023
1023
1023
568
0
0
0
0
0
0
475
1022
1023
1022
1022
1023
1023
1023
1022
1022
1022
1022
1022
665
0
0
0
0
0
0
0
970
1023
1023
1022
1022
1022
1023
1022
1023
1022
1022
1023
450
0
0
0
0
0
0
288
1022
1022
1022
1022
1023
1023
1023
1022
1023
1023
1022
1023
509
0
0
0
0
0
0
581
1022
1023
1023
1023
1023
1022
1022
1023
1022
1023
1022
1023
513
0
0
0
0
0
0
612
1022
1023
1022
1023
1023
1022
1023
1022
1022
1023
1023
1022
459
0
0
0
0
0
0
409
1022
1023
1023
1022
1023
1022
1023
1022
1022
1023
1022
1022
516
0
0
0
0
0
0
356
1022
1023
1023
1022
1022
1022
1023
1022
1023
1023
1022
1023
462
0
0
0
0
0
0
591
1022
1023
1022
1022
1022
1022
1023
1023
1022
1023
1022
1023
432
0
0
0
0
0
0
951
1022
1023
1023
1022
1023
1022
1023
1022
1022
1022
1022
1023
497
0
0
0
0
0
0
440
1022
1023
1023
1022
1023
1022
1023
1023
1023
1023
1022
1023
450
0
0
0
0
0
0
705
1022
1022
1023
1023
1023
1023
1023
1023
1023
1023
1022
1023
426
0
0
0
0
0
0
476
1022
1023
1023
1023
1023
1022
1022
1023
1023
1023
1022
1023
351
0
0
0
0
0
0
715
1022
1023
1022
1022
1023
1022
1023
1023
1023
1023
1022
1023
396
0
0
0
0
0
2
1007
1022
1023
1022
1022
1023
1022
1023
1022
1023
1023
1022
1023
476
0
0
0
0
0
0
0
925
1023
1022
1023
1023
1022
1023
1023
1022
1023
1022
1023
355
0
0
0
0
0
0
737
1022
1023
1023
1022
1023
1022
1023
1023
1023
1023
1022
1023
361
0
0
0
0
0
0
572
1022
1023
1022
1023
1023
1022
1023
1022
1022
1023
1022
1023
313
0
0
0
0
0
0
907
1022
1023
1022
1022
1023
1022
1023
1022
1023
1023
1022
1023
403
0
0
0
0
0
0
992
1022
1023
1022
1023
1023
1023
1023
1023
1023
1023
1022
1023
398
0
0
0
0
0
0
215
1022
1023
1023
1023
1023
1022
1023
1022
1022
1023
1022
1023
321
0
0
0
0
0
0
594
1022
1022
1023
1023
1023
1023
1023
1023
1022
1023
1022
1023
371
0
0
0
0
0
0
276
1022
1023
1023
1023
1023
1022
1023
1022
1023
1023
1022
1023
254
0
0
0
0
0
0
753
1022
1023
1023
1023
1023
1022
1023
1022
1023
1023
1022
1023
325
0
0
0
0
0
0
903
1022
1022
1022
1022
1022
1022
1023
1023
1022
1022
1022
1023
403
0
0
0
0
0
0
190
1022
1023
1023
1022
1023
1023
1023
1022
1022
1023
1022
1023
294
0
0
0
0
0
0
341
1022
1023
1023
1022
1023
1022
1023
1023
1022
1023
1022
1022
330
0
0
0
0
0
0
115
1022
1022
1023
1023
1023
1023
1023
1022
1023
1022
1022
1023
273
0
0
0
0
0
0
934
1022
1023
1023
1023
1023
1022
1023
1022
1022
1023
1022
1022
370
0
0
0
0
0
0
543
1022
1023
1023
1022
1023
1023
1023
1022
1023
1023
1022
1023
352
0
0
0
0
0
0
167
1022
1023
1022
1023
1023
1022
1023
1022
1022
1023
1022
1023
278
0
0
0
0
0
0
414
1022
1023
1022
1022
1023
1023
1022
1022
1022
1023
1022
1022
521
0
0
0
0
0
0
0
694
1023
1023
1022
1022
1022
1023
1023
1022
1023
1022
1022
144
0
0
0
0
0
0
769
1022
1023
1022
1022
1023
1023
1023
1023
1022
1022
1022
1022
284
0
0
0
0
0
0
515
1022
1023
1022
1023
1023
1022
1023
1023
1023
1023
1022
1023
403
0
0
0
0
0
0
74
1022
1022
1022
1023
1023
1022
1023
1023
1022
1023
1022
1022
191
0
0
0
0
0
0
381
1022
1023
1022
1023
1023
1022
1022
1023
1022
1023
1022
1022
398
0
0
0
0
0
0
0
790
1023
1023
1022
1023
1023
1023
1023
1022
1023
1022
1022
211
0
0
0
0
0
0
928
1022
1023
1023
1022
1022
1022
1023
1022
1023
1023
1022
1023
307
0
0
0
0
0
0
206
1022
1023
1022
1022
1023
1023
1022
1023
1023
1023
1022
1023
340
0
0
0
0
0
0
0
903
1023
1022
1023
1023
1022
1023
1023
1023
1023
1022
1023
171
0
0
0
0
0
0
452
1022
1023
1022
1023
1023
1022
1023
1022
1022
1023
1022
1023
270
0
0
0
0
0
0
162
1022
1023
1022
1022
1022
1022
1022
1022
1023
1023
1022
1023
182
0
0
0
0
0
0
728
1022
1022
1022
1023
1023
1022
1023
1023
1022
1022
1022
1022
221
0
0
0
0
0
0
417
1022
1023
1023
1023
1023
1022
1023
1023
1023
1023
1022
1023
269
0
0
0
0
0
0
156
1022
1023
1022
1022
1023
1023
1023
1023
1023
1022
1023
1022
163
0
0
0
0
0
0
363
1022
1022
1023
1023
1022
1022
1023
1022
1022
1023
1022
1023
146
0
0
0
0
0
0
807
1022
1023
1022
1023
1023
1022
1023
1023
1023
1023
1022
1022
227
0
0
0
0
0
0
472
1022
1023
1023
1023
1023
1022
1023
1023
1022
1023
1022
1023
197
0
0
0
0
0
0
614
1022
1023
1023
1023
1023
1023
1023
1022
1023
1023
1022
1022
173
0
0
0
0
0
0
425
1022
1023
1023
1023
1022
1022
1023
1023
1022
1023
1022
1023
142
0
0
0
0
0
0
550
1022
1023
1022
1022
1023
1022
1023
1022
1023
1023
1022
1023
157
0
0
0
0
0
0
849
1023
1023
1022
1023
1023
1022
1023
1022
1023
1023
1022
1023
197
0
0
0
0
0
0
60
1021
1023
1023
1023
1023
1022
1023
1022
1022
1023
1022
1022
98
0
0
0
0
0
0
717
1022
1023
1023
1023
1023
1022
1023
1022
1023
1023
1022
1023
304
0
0
0
0
0
0
112
1022
1022
1022
1022
1023
1023
1022
1022
1023
1022
1022
1023
59
0
0
0
0
0
0
0
1014
1023
1023
1022
1022
1022
1022
1022
1022
1023
1022
1022
81
0
0
0
0
0
0
593
1022
1023
1023
1022
1022
1022
1022
1023
1023
1023
1022
1023
159
0
0
0
0
0
0
62
1022
1023
1023
1023
1023
1022
1023
1022
1023
1023
1022
1022
181
0
0
0
0
0
0
358
1022
1023
1022
1023
1023
1022
1023
1022
1023
1023
1022
1023
172
0
0
0
0
0
0
248
1022
1023
1023
1022
1023
1022
1022
1023
1022
1022
1022
1023
39
0
0
0
0
0
0
481
1022
1023
1023
1023
1022
1023
1023
1022
1023
1023
1022
1022
166
0
0
0
0
0
0
539
1022
1023
1022
1023
1022
1022
1023
1022
1023
1023
1022
1022
125
0
0
0
0
0
0
0
964
1023
1023
1022
1022
1022
1023
1022
1022
1022
1022
1023
60
0
0
0
0
0
0
476
1022
1023
1022
1022
1023
1022
1023
1023
1023
1023
1022
1022
264
0
0
0
0
0
0
0
821
1023
1022
1023
1023
1022
1022
1022
1022
1023
1022
1023
31
0
0
0
0
0
0
273
1022
1023
1022
1023
1023
1022
1022
1022
1022
1023
1022
1023
74
0
0
0
0
0
0
612
1022
1023
1023
1022
1022
1023
1023
1023
1022
1022
1023
1022
165
0
0
0
0
0
0
164
1022
1022
1023
1023
1022
1022
1023
1022
1023
1023
1022
1023
71
0
0
0
0
0
0
275
1022
1023
1022
1022
1023
1023
1023
1023
1022
1023
1022
1022
288
0
0
0
0
0
0
0
716
1023
1023
1023
1023
1022
1022
1022
1023
1023
1022
1023
0
0
0
0
0
0
0
723
1022
1023
1022
1023
1022
1022
1023
1022
1022
1022
1022
1023
96
0
0
0
0
0
0
416
1022
1023
1023
1022
1023
1022
1022
1023
1022
1023
1023
1022
157
0
0
0
0
0
0
0
947
1023
1022
1022
1023
1022
1022
1023
1023
1023
1022
1023
0
0
0
0
0
0
0
216
1022
1023
1022
1023
1023
1022
1023
1023
1023
1023
1022
1023
332
0
0
0
0
0
0
0
432
1023
1022
1023
1023
1023
1023
1022
1022
1023
1022
1023
0
0
0
0
0
0
0
751
1022
1023
1023
1022
1023
1022
1022
1022
1023
1023
1022
1022
106
0
0
0
0
0
0
135
1022
1022
1022
1023
1023
1022
1023
1022
1023
1022
1022
1023
139
0
0
0
0
0
0
0
644
1023
1022
1023
1022
1022
1022
1023
1022
1022
1022
1023
0
0
0
0
0
0
0
313
1022
1023
1023
1023
1023
1022
1023
1023
1023
1023
1022
1023
173
0
0
0
0
0
0
269
1022
1023
1022
1022
1023
1022
1022
1022
1023
1023
1022
1022
47
0
0
0
0
0
0
635
1022
1022
1022
1023
1023
1023
1023
1023
1023
1022
1022
1022
329
0
0
0
0
0
0
0
445
1023
1023
1023
1022
1022
1022
1023
1023
1023
1022
1022
0
0
0
0
0
0
0
78
1022
1023
1022
1023
1023
1023
1023
1022
1023
1022
1022
1023
3
0
0
0
0
0
0
348
1022
1023
1022
1023
1022
1022
1023
1022
1022
1023
1022
1022
34
0
0
0
0
0
0
579
1022
1023
1022
1023
1023
1022
1022
1022
1022
1023
1023
1022
98
0
0
0
0
0
0
211
1022
1023
1022
1022
1023
1022
1023
1023
1022
1023
1022
1022
0
0
0
0
0
0
0
730
1022
1022
1023
1023
1023
1023
1023
1022
1023
1023
1022
1023
67
0
0
0
0
0
0
208
1022
1023
1022
1022
1023
1022
1023
1022
1022
1023
1022
1023
0
0
0
0
0
0
0
56
1022
1023
1022
1022
1023
1023
1023
1023
1022
1022
1022
1023
0
0
0
0
0
0
0
649
1022
1022
1022
1023
1023
1022
1023
1023
1022
1023
1022
1022
7
0
0
0
0
0
0
93
1022
1022
1022
1023
1023
1022
1023
1022
1023
1022
1022
1022
0
0
0
0
0
0
0
297
1022
1023
1023
1023
1023
1022
1023
1023
1023
1023
1023
1023
8
0
0
0
0
0
0
141
1022
1022
1023
1023
1023
1023
1023
1022
1022
1023
1022
1023
0
0
0
0
0
0
0
564
1022
1023
1022
1022
1023
1022
1023
1022
1023
1023
1022
1022
0
0
0
0
0
0
0
437
1022
1023
1022
1022
1022
1023
1022
1022
1022
1023
1022
1023
0
0
0
0
0
0
0
0
948
1023
1022
1022
1023
1022
1023
1023
1022
1023
1022
1023
0
0
0
0
0
0
0
574
1022
1023
1022
1023
1023
1022
1023
1023
1023
1022
1022
1023
61
0
0
0
0
0
0
56
1022
1023
1023
1023
1022
1022
1022
1023
1022
1023
1022
1022
0
0
0
0
0
0
0
178
1022
1022
1022
1022
1022
1022
1023
1022
1023
1023
1022
1022
0
0
0
0
0
0
0
652
1022
1023
1023
1023
1023
1022
1023
1022
1022
1022
1022
1023
0
0
0
0
0
0
0
0
1017
1023
1023
1023
1023
1022
1022
1022
1022
1023
1022
1022
0
0
0
0
0
0
0
361
1022
1023
1023
1023
1022
1022
1022
1023
1023
1023
1022
1023
10
0
0
0
0
0
0
0
875
1023
1022
1023
1023
1023
1022
1022
1022
1022
1022
1023
0
0
0
0
0
0
0
593
1022
1023
1023
1022
1022
1022
1023
1023
1023
1023
1022
1022
0
0
0
0
0
0
0
668
1022
1023
1022
1023
1023
1022
1022
1022
1023
1022
1022
1023
0
0
0
0
0
0
0
59
1022
1023
1022
1023
1023
1022
1022
1022
1023
1022
1022
1022
0
0
0
0
0
0
0
380
1022
1023
1023
1022
1022
1022
1023
1022
1023
1023
1022
1022
3
0
0
0
0
0
0
0
944
1023
1023
1023
1023
1022
1023
1022
1023
1023
1022
1022
0
0
0
0
0
0
0
769
1022
1022
1022
1023
1023
1023
1023
1022
1022
1022
1022
1023
0
0
0
0
0
0
0
454
1022
1023
1022
1023
1022
1022
1023
1022
1022
1023
1022
1023
0
0
0
0
0
0
0
0
987
1023
1022
1023
1023
1022
1023
1023
1023
1023
1022
1023
0
0
0
0
0
0
0
321
1022
1022
1022
1023
1023
1022
1022
1023
1023
1023
1022
1022
22
0
0
0
0
0
0
0
794
1022
1022
1023
1023
1022
1023
1022
1022
1023
1022
1022
0
0
0
0
0
0
0
1021
1023
1023
1023
1023
1023
1022
1022
1023
1023
1023
1022
1023
0
0
0
0
0
0
0
284
1022
1023
1022
1023
1023
1022
1023
1022
1022
1022
1023
1023
0
0
0
0
0
0
0
0
879
1023
1023
1022
1023
1022
1022
1023
1022
1022
1022
1022
0
0
0
0
0
0
0
522
1022
1023
1022
1023
1023
1022
1023
1022
1023
1022
1022
1022
20
0
0
0
0
0
0
0
938
1023
1022
1023
1022
1022
1023
1022
1022
1023
1022
1022
0
0
0
0
0
0
0
957
1022
1022
1022
1023
1023
1022
1022
1022
1022
1022
1022
1023
0
0
0
0
0
0
0
597
1022
1023
1022
1023
1023
1023
1022
1023
1023
1023
1023
1023
0
0
0
0
0
0
0
25
1022
1022
1022
1023
1023
1023
1023
1023
1022
1023
1022
1022
0
0
0
0
0
0
0
311
1022
1023
1022
1023
1022
1022
1022
1023
1023
1022
1022
1023
0
0
0
0
0
0
0
1010
1022
1023
1022
1023
1023
1022
1023
1023
1023
1023
1022
1022
0
0
0
0
0
0
0
935
1022
1023
1023
1023
1023
1022
1023
1022
1023
1023
1022
1022
0
0
0
0
0
0
0
878
1022
1022
1022
1023
1023
1022
1023
1022
1022
1023
1022
1023
0
0
0
0
0
0
0
350
1022
1023
1023
1022
1022
1022
1022
1023
1023
1023
1022
1022
0
0
0
0
0
0
0
849
1022
1023
1023
1023
1023
1022
1022
1022
1023
1023
1022
1023
0
0
0
0
0
0
0
865
1022
1023
1022
1023
1022
1022
1022
1023
1023
1023
1022
1022
0
0
0
0
0
0
0
516
1022
1023
1022
1023
1023
1022
1023
1022
1022
1022
1022
1023
0
0
0
0
0
0
0
933
1022
1023
1022
1023
1023
1022
1023
1023
1023
1023
1022
1022
0
0
0
0
0
0
0
566
1022
1022
1022
1023
1023
1023
1023
1022
1022
1022
1022
1023
0
0
0
0
0
0
0
735
1022
1023
1023
1023
1022
1022
1022
1023
1023
1023
1022
1022
0
0
0
0
0
0
0
980
1023
1023
1023
1023
1023
1022
1023
1022
1023
1023
1022
1023
0
0
0
0
0
0
0
398
1022
1022
1022
1022
1022
1022
1022
1023
1023
1023
1022
1022
0
0
0
0
0
0
0
825
1022
1023
1022
1022
1023
1022
1022
1022
1022
1023
1022
1022
0
0
0
0
0
0
0
532
1022
1023
1022
1023
1023
1022
1022
1022
1023
1023
1022
1022
0
0
0
0
0
0
0
948
1022
1022
1023
1023
1023
1022
1023
1022
1022
1022
1022
1022
0
0
0
0
0
0
0
990
1022
1023
1023
1023
1023
1022
1022
1022
1022
1023
1022
1022
0
0
0
0
0
0
0
316
1022
1023
1022
1022
1022
1022
1023
1023
1023
1022
1022
1022
0
0
0
0
0
0
0
939
1022
1023
1022
1023
1022
1022
1022
1022
1023
1023
1022
1022
0
0
0
0
0
0
0
447
1022
1022
1022
1023
1023
1022
1023
1022
1022
1023
1022
1022
0
0
0
0
0
0
0
679
1022
1023
1022
1023
1022
1022
1022
1022
1023
1023
1022
1022
0
0
0
0
0
0
0
994
1022
1023
1023
1022
1023
1023
1022
1023
1023
1023
1022
1022
0
0
0
0
0
0
0
520
1022
1022
1022
1023
1023
1022
1022
1023
1023
1022
1022
1022
0
0
0
0
0
0
0
696
1022
1023
1022
1022
1023
1023
1023
1023
1023
1022
1023
1022
0
0
0
0
0
0
0
52
1021
1023
1022
1023
1023
1022
1022
1023
1023
1023
1022
1022
0
0
0
0
0
0
0
987
1022
1022
1022
1023
1022
1022
1022
1022
1022
1022
1022
1022
0
0
0
0
0
0
0
568
1022
1023
1022
1023
1022
1022
1022
1023
1023
1023
1023
1022
0
0
0
0
0
0
0
339
1022
1022
1022
1022
1022
1022
1022
1022
1022
1023
1022
1022
0
0
0
0
0
0
0
863
1022
1023
1022
1023
1023
1022
1023
1023
1023
1022
1022
1022
0
0
0
0
0
0
0
0
868
1023
1023
1023
1023
1022
1022
1022
1023
1022
1022
1022
0
0
0
0
0
0
0
890
1022
1023
1022
1022
1022
1023
1023
1022
1023
1023
1022
1022
0
0
0
0
0
0
0
447
1022
1023
1022
1023
1023
1023
1022
1022
1022
1022
1022
1022
0
0
0
0
0
0
0
105
1022
1023
1023
1023
1022
1022
1023
1022
1023
1023
1022
1022
0
0
0
0
0
0
0
594
1022
1023
1023
1023
1023
1022
1023
1022
1022
1023
1022
1022
0
0
0
0
0
0
0
0
945
1023
1023
1023
1023
1022
1022
1022
1023
1023
1022
1022
0
0
0
0
0
0
0
1017
1023
1022
1022
1023
1023
1023
1023
1022
1023
1023
1022
1022
0
0
0
0
0
0
0
445
1022
1023
1023
1022
1023
1022
1023
1022
1023
1023
1022
1022
0
0
0
0
0
0
0
231
1022
1022
1022
1022
1023
1023
1022
1022
1022
1023
1022
1022
0
0
0
0
0
0
0
835
1022
1023
1022
1022
1023
1022
1022
1022
1023
1022
1022
1022
0
0
0
0
0
0
148
1022
1022
1022
1022
1023
1022
1022
1022
1022
1023
1023
1022
1023
0
0
0
0
0
0
0
815
1022
1023
1022
1022
1023
1022
1022
1023
1023
1023
1022
1022
0
0
0
0
0
0
0
723
1022
1022
1022
1022
1022
1022
1022
1023
1023
1023
1022
1023
0
0
0
0
0
0
0
495
1022
1023
1023
1023
1023
1022
1023
1023
1022
1023
1022
1022
0
0
0
0
0
0
0
516
1022
1022
1022
1023
1023
1022
1023
1022
1022
1022
1022
1022
0
0
0
0
0
0
0
870
1022
1022
1023
1023
1023
1022
1022
1023
1023
1022
1022
1023
0
0
0
0
0
0
0
563
1022
1023
1022
1022
1023
1023
1023
1023
1022
1023
1022
1022
0
0
0
0
0
0
0
715
1023
1023
1022
1023
1023
1022
1022
1023
1022
1023
1022
1022
0
0
0
0
0
0
0
439
1022
1022
1023
1023
1022
1022
1023
1023
1022
1023
1022
1022
0
0
0
0
0
0
0
939
1022
1023
1022
1023
1022
1022
1022
1023
1023
1023
1022
1022
0
0
0
0
0
0
0
916
1022
1022
1022
1023
1023
1022
1022
1022
1023
1022
1022
1022
0
0
0
0
0
0
0
266
1022
1023
1022
1023
1022
1022
1023
1022
1023
1023
1022
1022
0
0
0
0
0
0
0
969
1022
1022
1023
1023
1023
1022
1023
1023
1022
1023
1022
1022
0
0
0
0
0
0
0
425
1022
1023
1023
1023
1023
1022
1022
1022
1023
1023
1022
1022
0
0
0
0
0
0
0
577
1022
1022
1022
1023
1023
1023
1023
1023
1022
1023
1022
1022
0
0
0
0
0
0
57
1022
1022
1023
1022
1022
1023
1022
1022
1022
1022
1022
1022
1023
0
0
0
0
0
0
0
492
1022
1023
1022
1022
1023
1022
1023
1022
1023
1023
1022
1022
0
0
0
0
0
0
0
740
1022
1023
1022
1023
1022
1022
1023
1022
1023
1023
1022
1022
0
0
0
0
0
0
0
220
1022
1022
1022
1023
1023
1022
1023
1022
1022
1023
1022
1022
0
0
0
0
0
0
0
750
1022
1023
1022
1023
1022
1022
1022
1022
1022
1023
1022
1022
0
0
0
0
0
0
0
987
1022
1022
1023
1023
1023
1022
1023
1022
1022
1023
1022
1022
0
0
0
0
0
0
0
396
1022
1023
1022
1022
1023
1022
1023
1022
1022
1023
1022
1022
0
0
0
0
0
0
0
865
1022
1023
1023
1022
1023
1022
1022
1022
1022
1023
1022
1022
0
0
0
0
0
0
0
362
1022
1023
1023
1023
1022
1022
1023
1023
1023
1023
1022
1022
0
0
0
0
0
0
0
890
1022
1022
1023
1023
1023
1022
1023
1022
1023
1023
1022
1022
0
0
0
0
0
0
0
534
1022
1023
1022
1022
1023
1022
1022
1022
1023
1022
1022
1022
0
0
0
0
0
0
0
514
1022
1022
1023
1022
1022
1022
1023
1022
1023
1023
1022
1022
0
0
0
0
0
0
0
739
1022
1022
1023
1023
1023
1022
1022
1022
1022
1022
1022
1022
0
0
0
0
0
0
0
0
841
1022
1023
1023
1022
1022
1023
1022
1022
1023
1022
1010
0
0
0
0
0
0
0
1013
1023
1023
1022
1023
1022
1022
1022
1022
1023
1023
1022
1022
0
0
0
0
0
0
0
462
1022
1023
1023
1023
1023
1022
1022
1022
1022
1023
1022
1022
0
0
0
0
0
0
0
214
1022
1023
1023
1023
1023
1022
1022
1023
1022
1023
1022
1022
0
0
0
0
0
0
0
493
1022
1022
1023
1023
1023
1022
1022
1023
1023
1023
1022
1022
0
0
0
0
0
0
0
0
980
1022
1023
1023
1023
1022
1022
1022
1023
1023
1022
1022
0
0
0
0
0
0
0
1016
1022
1023
1022
1023
1023
1023
1023
1022
1022
1022
1022
1022
0
0
0
0
0
0
0
483
1022
1023
1023
1023
1023
1022
1023
1022
1022
1022
1023
1022
0
0
0
0
0
0
0
179
1022
1022
1022
1023
1023
1022
1023
1022
1023
1023
1022
1022
0
0
0
0
0
0
0
536
1022
1022
1022
1023
1023
1022
1022
1023
1023
1023
1022
1022
0
0
0
0
0
0
0
523
1022
1023
1022
1023
1023
1022
1022
1023
1022
1023
1022
1022
0
0
0
0
0
0
0
896
1022
1023
1022
1022
1023
1022
1022
1022
1023
1023
1022
1022
0
0
0
0
0
0
0
496
1022
1022
1022
1022
1023
1022
1023
1022
1022
1023
1023
1022
0
0
0
0
0
0
0
246
1022
1023
1023
1023
1023
1022
1022
1023
1022
1023
1022
1001
0
0
0
0
0
0
0
676
1022
1023
1022
1022
1023
1022
1023
1022
1023
1023
1022
1022
0
0
0
0
0
0
0
926
1022
1023
1022
1022
1023
1022
1022
1022
1023
1023
1022
1022
0
0
0
0
0
0
0
620
1022
1023
1023
1022
1023
1022
1023
1022
1022
1023
1022
1022
0
0
0
0
0
0
0
747
1022
1023
1022
1022
1023
1022
1023
1023
1022
1022
1022
1022
0
0
0
0
0
0
0
601
1022
1022
1023
1023
1023
1022
1022
1022
1022
1023
1022
1021
0
0
0
0
0
0
0
643
1022
1023
1023
1022
1022
1022
1023
1022
1022
1023
1022
1022
0
0
0
0
0
0
0
941
1022
1022
1023
1023
1023
1023
1023
1023
1023
1023
1022
1022
0
0
0
0
0
0
0
369
1022
1022
1023
1023
1022
1022
1022
1023
1023
1023
1022
1021
0
0
0
0
0
0
0
797
1022
1022
1022
1022
1023
1022
1023
1023
1022
1022
1022
1021
0
0
0
0
0
0
0
461
1022
1023
1023
1023
1023
1022
1023
1023
1022
1023
1022
932
0
0
0
0
0
0
0
696
1022
1022
1022
1023
1023
1022
1023
1022
1022
1022
1022
1020
0
0
0
0
0
0
269
1022
1022
1023
1022
1023
1022
1022
1023
1022
1023
1022
1022
1022
0
0
0
0
0
0
0
133
1022
1023
1022
1022
1023
1022
1022
1023
1023
1022
1022
979
0
0
0
0
0
0
0
652
1022
1023
1022
1022
1023
1022
1023
1023
1023
1023
1022
901
0
0
0
0
0
0
0
621
1022
1023
1022
1022
1022
1022
1022
1023
1022
1022
1022
1022
0
0
0
0
0
0
0
0
567
1023
1022
1022
1022
1022
1022
1022
1022
1023
1022
799
0
0
0
0
0
0
0
703
1022
1023
1022
1023
1023
1023
1023
1022
1022
1023
1022
1022
0
0
0
0
0
0
0
391
1022
1023
1023
1023
1023
1022
1023
1022
1022
1022
1022
1022
0
0
0
0
0
0
0
742
1022
1023
1023
1023
1023
1022
1023
1023
1022
1022
1022
1022
0
0
0
0
0
0
0
195
1022
1023
1023
1023
1023
1022
1022
1023
1022
1023
1022
926
0
0
0
0
0
0
0
925
1022
1022
1022
1023
1023
1022
1022
1023
1022
1023
1022
1022
0
0
0
0
0
0
0
915
1022
1023
1023
1022
1022
1022
1022
1023
1022
1023
1022
1022
0
0
0
0
0
0
0
407
1022
1023
1023
1022
1023
1022
1022
1022
1022
1022
1022
946
0
0
0
0
0
0
0
529
1022
1022
1023
1023
1023
1022
1022
1023
1023
1023
1022
913
0
0
0
0
0
0
0
5
1022
1023
1023
1023
1023
1022
1022
1022
1022
1023
1022
934
0
0
0
0
0
0
0
810
1022
1023
1023
1022
1022
1022
1023
1023
1023
1022
1022
1020
0
0
0
0
0
0
0
657
1022
1022
1023
1022
1023
1022
1023
1023
1022
1023
1022
1021
0
0
0
0
0
0
0
556
1022
1023
1022
1022
1023
1022
1022
1022
1023
1023
1022
1002
0
0
0
0
0
0
0
531
1022
1023
1023
1022
1023
1023
1023
1023
1022
1023
1023
1019
0
0
0
0
0
0
0
0
707
1022
1023
1023
1022
1022
1022
1022
1022
1023
1022
813
0
0
0
0
0
0
192
1023
1022
1023
1022
1022
1023
1022
1023
1023
1023
1023
1022
1004
0
0
0
0
0
0
0
877
1022
1023
1022
1022
1023
1022
1022
1023
1023
1023
1022
1022
0
0
0
0
0
0
0
105
1022
1022
1022
1023
1023
1023
1022
1023
1022
1022
1022
858
0
0
0
0
0
0
0
607
1022
1023
1022
1022
1023
1022
1023
1022
1022
1023
1022
921
0
0
0
0
0
0
0
265
1022
1022
1022
1022
1023
1022
1022
1022
1023
1023
1022
857
0
0
0
0
0
0
0
1019
1022
1023
1023
1023
1023
1022
1023
1023
1022
1023
1022
1020
0
0
0
0
0
0
0
396
1022
1022
1023
1023
1023
1022
1022
1022
1022
1022
1022
1020
0
0
0
0
0
0
0
521
1022
1023
1023
1023
1023
1022
1022
1022
1022
1023
1022
879
0
0
0
0
0
0
0
566
1022
1023
1022
1022
1022
1022
1023
1022
1023
1022
1022
1013
0
0
0
0
0
0
24
1022
1022
1023
1023
1022
1023
1022
1023
1023
1022
1022
1022
961
0
0
0
0
0
0
0
820
1022
1023
1023
1022
1023
1022
1023
1023
1022
1023
1022
874
0
0
0
0
0
0
0
942
1022
1023
1023
1022
1023
1022
1022
1022
1022
1022
1022
1021
0
0
0
0
0
0
0
511
1022
1023
1022
1023
1023
1022
1023
1023
1023
1023
1022
825
0
0
0
0
0
0
0
419
1022
1023
1022
1022
1022
1022
1023
1022
1022
1023
1022
807
0
0
0
0
0
0
271
1022
1022
1023
1022
1022
1023
1022
1022
1022
1022
1023
1022
1015
0
0
0
0
0
0
0
605
1022
1023
1022
1022
1022
1022
1022
1022
1022
1022
1022
844
0
0
0
0
0
0
0
912
1022
1022
1022
1022
1023
1023
1023
1023
1022
1022
1022
904
0
0
0
0
0
0
0
594
1022
1023
1023
1023
1023
1022
1023
1023
1023
1023
1022
829
0
0
0
0
0
0
0
305
1022
1022
1022
1023
1023
1023
1022
1023
1023
1023
1022
798
0
0
0
0
0
0
0
1017
1023
1023
1023
1023
1022
1022
1022
1022
1023
1023
1022
932
0
0
0
0
0
0
0
305
1022
1023
1022
1022
1022
1022
1023
1023
1022
1023
1022
784
0
0
0
0
0
0
0
1016
1022
1022
1023
1022
1022
1022
1023
1023
1022
1023
1022
793
0
0
0
0
0
0
0
418
1022
1022
1023
1023
1023
1023
1023
1022
1022
1022
1022
742
0
0
0
0
0
0
0
617
1022
1023
1023
1023
1023
1022
1022
1023
1022
1023
1022
786
0
0
0
0
0
0
5
1021
1022
1023
1023
1022
1023
1023
1023
1023
1023
1022
1022
932
0
0
0
0
0
0
0
380
1022
1023
1022
1023
1022
1022
1022
1022
1022
1023
1022
844
0
0
0
0
0
0
0
698
1022
1022
1022
1022
1022
1022
1023
1023
1023
1022
1022
750
0
0
0
0
0
0
0
384
1022
1023
1023
1022
1023
1022
1023
1022
1023
1023
1022
745
0
0
0
0
0
0
0
807
1022
1022
1022
1023
1023
1022
1022
1023
1023
1023
1022
865
0
0
0
0
0
0
0
852
1022
1023
1023
1023
1023
1022
1022
1022
1023
1023
1022
830
0
0
0
0
0
0
0
648
1022
1022
1022
1023
1023
1022
1023
1023
1023
1023
1022
782
0
0
0
0
0
0
0
893
1022
1022
1023
1023
1023
1022
1022
1023
1022
1022
1022
873
0
0
0
0
0
0
0
166
1022
1023
1022
1023
1022
1023
1023
1023
1022
1023
1022
702
0
0
0
0
0
0
0
944
1022
1023
1023
1022
1023
1022
1022
1022
1023
1023
1022
739
0
0
0
0
0
0
0
865
1022
1023
1022
1022
1023
1023
1023
1022
1022
1023
1022
888
0
0
0
0
0
0
0
737
1022
1023
1023
1022
1023
1023
1023
1023
1023
1023
1022
765
0
0
0
0
0
0
0
723
1022
1022
1023
1022
1023
1022
1023
1022
1022
1023
1022
723
0
0
0
0
0
0
0
86
1022
1023
1022
1022
1023
1022
1023
1023
1022
1022
1022
679
0
0
0
0
0
0
479
1022
1022
1023
1022
1022
1023
1022
1022
1022
1022
1023
1022
845
0
0
0
0
0
0
0
868
1022
1023
1022
1022
1023
1022
1023
1023
1022
1023
1022
895
0
0
0
0
0
0
0
388
1022
1023
1022
1022
1023
1023
1023
1023
1022
1022
1022
639
0
0
0
0
0
0
82
1022
1022
1023
1023
1022
1023
1022
1022
1022
1022
1023
1022
848
0
0
0
0
0
0
0
346
1022
1022
1023
1022
1022
1022
1023
1023
1022
1023
1022
670
0
0
0
0
0
0
160
1023
1022
1022
1023
1022
1023
1022
1023
1023
1022
1023
1022
752
0
0
0
0
0
0
0
790
1022
1022
1022
1022
1023
1022
1023
1022
1022
1023
1022
864
0
0
0
0
0
0
0
635
1022
1023
1023
1022
1023
1022
1023
1022
1022
1023
1023
716
0
0
0
0
0
0
0
759
1022
1022
1023
1023
1023
1023
1023
1022
1023
1022
1022
730
0
0
0
0
0
0
470
1023
1022
1023
1022
1022
1023
1022
1023
1023
1023
1022
1022
801
0
0
0
0
0
0
207
1022
1022
1023
1022
1023
1023
1022
1022
1022
1022
1023
1022
732
0
0
0
0
0
0
0
980
1022
1023
1023
1022
1022
1022
1022
1022
1022
1023
1022
776
0
0
0
0
0
0
0
854
1022
1023
1022
1022
1023
1022
1023
1022
1022
1022
1022
670
0
0
0
0
0
0
0
947
1023
1023
1023
1022
1022
1022
1022
1022
1022
1023
1022
696
0
0
0
0
0
0
442
1022
1022
1022
1022
1022
1023
1023
1023
1023
1023
1022
1022
732
0
0
0
0
0
0
0
835
1022
1022
1022
1023
1023
1022
1022
1022
1023
1023
1022
646
0
0
0
0
0
0
266
1022
1022
1022
1023
1023
1023
1023
1023
1023
1023
1022
1022
744
0
0
0
0
0
0
0
775
1022
1023
1022
1022
1023
1022
1022
1022
1022
1022
1022
648
0
0
0
0
0
0
0
686
1022
1023
1022
1022
1023
1022
1022
1022
1022
1022
1022
592
0
0
0
0
0
0
732
1023
1022
1023
1023
1022
1023
1022
1022
1022
1023
1023
1022
767
0
0
0
0
0
0
0
702
1022
1022
1023
1023
1023
1022
1022
1022
1022
1023
1022
683
0
0
0
0
0
0
240
1022
1022
1023
1023
1023
1023
1022
1022
1023
1023
1023
1022
624
0
0
0
0
0
0
0
803
1022
1023
1023
1023
1023
1022
1023
1022
1023
1023
1022
551
0
0
0
0
0
0
120
1022
1022
1023
1023
1022
1023
1022
1023
1022
1022
1023
1022
715
0
0
0
0
0
0
440
1022
1022
1023
1022
1022
1023
1023
1022
1022
1022
1022
1022
732
0
0
0
0
0
0
0
627
1022
1023
1023
1022
1023
1022
1023
1022
1022
1023
1022
595
0
0
0
0
0
0
0
1016
1022
1023
1022
1023
1023
1022
1022
1023
1023
1023
1022
654
0
0
0
0
0
0
0
625
1022
1023
1023
1023
1022
1022
1022
1022
1023
1023
1022
607
0
0
0
0
0
0
0
975
1022
1022
1022
1023
1022
1022
1023
1022
1022
1023
1022
604
0
0
0
0
0
0
281
1022
1022
1023
1023
1022
1023
1022
1022
1022
1022
1023
1022
697
0
0
0
0
0
0
0
965
1022
1022
1022
1022
1023
1022
1023
1022
1022
1023
1022
662
0
0
0
0
0
0
0
918
1023
1023
1022
1023
1023
1022
1023
1023
1023
1022
1022
601
0
0
0
0
0
0
0
600
1022
1022
1023
1023
1023
1022
1023
1022
1023
1022
1022
559
0
0
0
0
0
0
477
1023
1022
1023
1022
1023
1023
1022
1022
1023
1022
1023
1022
690
0
0
0
0
0
0
135
1022
1022
1022
1023
1023
1023
1022
1022
1023
1022
1023
1022
697
0
0
0
0
0
0
0
841
1022
1023
1023
1022
1023
1022
1022
1022
1023
1022
1022
573
0
0
0
0
0
0
0
980
1022
1022
1022
1022
1023
1022
1023
1022
1022
1023
1022
743
0
0
0
0
0
0
0
320
1022
1022
1023
1022
1023
1022
1022
1023
1022
1022
1022
529
0
0
0
0
0
0
378
1023
1022
1022
1023
1022
1023
1022
1022
1022
1022
1023
1022
601
0
0
0
0
0
0
308
1022
1022
1023
1023
1022
1023
1022
1022
1023
1022
1023
1022
737
0
0
0
0
0
0
0
1008
1022
1022
1023
1023
1023
1022
1022
1022
1022
1022
1022
560
0
0
0
0
0
0
0
997
1022
1023
1022
1022
1023
1022
1023
1022
1022
1023
1022
639
0
0
0
0
0
0
0
245
1022
1023
1022
1022
1023
1022
1022
1022
1022
1023
1022
518
0
0
0
0
0
0
513
1022
1022
1023
1022
1023
1023
1022
1022
1022
1022
1023
1022
673
0
0
0
0
0
0
0
874
1022
1022
1022
1022
1023
1022
1022
1022
1023
1023
1022
735
0
0
0
0
0
0
0
588
1022
1023
1023
1023
1023
1022
1022
1022
1023
1023
1022
511
0
0
0
0
0
0
40
1022
1022
1022
1022
1022
1023
1023
1022
1022
1022
1023
1022
665
0
0
0
0
0
0
0
389
1022
1023
1023
1022
1023
1022
1023
1022
1022
1023
1023
492
0
0
0
0
0
0
549
1022
1022
1023
1022
1022
1023
1022
1022
1022
1022
1023
1022
579
0
0
0
0
0
0
263
1022
1022
1023
1022
1023
1023
1022
1022
1023
1023
1023
1022
719
0
0
0
0
0
0
0
798
1022
1023
1022
1023
1023
1023
1023
1022
1022
1023
1022
553
0
0
0
0
0
0
0
1009
1022
1023
1022
1022
1023
1022
1022
1022
1023
1023
1022
547
0
0
0
0
0
0
335
1022
1022
1022
1023
1023
1023
1023
1022
1022
1022
1023
1022
597
0
0
0
0
0
0
364
1022
1022
1023
1022
1022
1023
1022
1023
1022
1022
1023
1022
637
0
0
0
0
0
0
15
1019
1022
1022
1022
1022
1022
1022
1023
1022
1022
1023
1022
628
0
0
0
0
0
0
0
757
1022
1023
1023
1023
1023
1022
1022
1022
1022
1023
1022
447
0
0
0
0
0
0
235
1022
1022
1022
1023
1023
1023
1022
1022
1023
1022
1022
1022
552
0
0
0
0
0
0
752
1022
1022
1023
1023
1023
1023
1022
1022
1023
1023
1023
1022
612
0
0
0
0
0
0
0
860
1022
1022
1022
1022
1023
1023
1023
1023
1022
1023
1022
445
0
0
0
0
0
0
496
1022
1022
1022
1022
1022
1022
1022
1022
1022
1022
1022
1022
556
0
0
0
0
0
0
0
1002
1022
1022
1023
1022
1022
1023
1023
1022
1022
1022
1022
481
0
0
0
0
0
0
154
1022
1023
1023
1023
1023
1023
1023
1022
1022
1022
1023
1022
482
0
0
0
0
0
0
590
1023
1022
1023
1023
1023
1023
1023
1023
1022
1022
1023
1022
584
0
0
0
0
0
0
0
699
1022
1023
1023
1023
1023
1022
1023
1022
1022
1023
1022
515
0
0
0
0
0
0
3
1017
1022
1022
1023
1022
1023
1023
1022
1022
1022
1023
1022
459
0
0
0
0
0
0
0
973
1022
1023
1023
1022
1023
1022
1022
1023
1022
1023
1022
408
0
0
0
0
0
0
264
1022
1022
1023
1022
1022
1022
1023
1022
1022
1022
1023
1022
467
0
0
0
0
0
0
824
1022
1022
1023
1022
1022
1022
1022
1022
1022
1022
1023
1022
572
0
0
0
0
0
0
0
899
1022
1022
1022
1022
1023
1022
1023
1022
1022
1023
1022
443
0
0
0
0
0
0
422
1022
1022
1023
1022
1022
1023
1022
1023
1022
1023
1023
1022
453
0
0
0
0
0
0
0
856
1022
1022
1022
1022
1023
1022
1022
1022
1022
1023
1022
409
0
0
0
0
0
0
217
1022
1022
1023
1022
1023
1023
1022
1022
1022
1022
1022
1022
504
0
0
0
0
0
0
415
1023
1022
1023
1023
1022
1023
1022
1023
1022
1022
1023
1022
564
0
0
0
0
0
0
0
683
1022
1022
1022
1022
1022
1022
1023
1022
1023
1023
1022
519
0
0
0
0
0
0
0
839
1022
1023
1022
1023
1023
1023
1022
1022
1022
1023
1022
461
0
0
0
0
0
0
0
567
1022
1023
1022
1023
1023
1022
1022
1023
1023
1023
1022
364
0
0
0
0
0
0
527
1023
1022
1022
1022
1022
1023
1022
1022
1022
1022
1022
1022
528
0
0
0
0
0
0
462
1022
1022
1022
1022
1022
1023
1022
1022
1023
1022
1023
1022
550
0
0
0
0
0
0
0
1002
1022
1022
1023
1022
1023
1023
1022
1022
1023
1022
1022
427
0
0
0
0
0
0
153
1022
1022
1023
1023
1022
1023
1022
1023
1023
1022
1023
1022
630
0
0
0
0
0
0
0
536
1022
1023
1023
1023
1023
1022
1023
1022
1022
1023
1022
386
0
0
0
0
0
0
166
1022
1023
1022
1022
1022
1023
1022
1023
1023
1023
1022
1022
451
0
0
0
0
0
0
432
1023
1022
1023
1022
1022
1023
1023
1023
1022
1022
1023
1022
582
0
0
0
0
0
0
0
887
1022
1023
1023
1022
1023
1022
1022
1022
1022
1023
1022
444
0
0
0
0
0
0
0
921
1022
1022
1022
1022
1022
1022
1022
1022
1022
1023
1022
581
0
0
0
0
0
0
0
225
1022
1023
1023
1022
1023
1022
1023
1022
1023
1023
1022
373
0
0
0
0
0
0
695
1023
1022
1023
1023
1023
1023
1022
1022
1022
1022
1023
1022
503
0
0
0
0
0
0
94
1022
1022
1023
1023
1023
1023
1023
1023
1022
1022
1023
1022
564
0
0
0
0
0
0
0
775
1022
1023
1022
1022
1023
1022
1023
1022
1022
1023
1022
343
0
0
0
0
0
0
482
1022
1022
1023
1023
1022
1023
1022
1022
1022
1022
1023
1022
502
0
0
0
0
0
0
0
587
1022
1022
1022
1023
1023
1023
1023
1022
1022
1022
1022
352
0
0
0
0
0
0
391
1022
1022
1023
1022
1022
1023
1022
1022
1022
1022
1022
1022
410
0
0
0
0
0
0
13
1020
1023
1022
1023
1022
1023
1022
1023
1022
1022
1022
1022
546
0
0
0
0
0
0
0
882
1022
1023
1023
1022
1023
1022
1022
1022
1023
1023
1022
399
0
0
0
0
0
0
0
1016
1022
1023
1022
1022
1023
1022
1023
1022
1022
1022
1022
379
0
0
0
0
0
0
543
1022
1022
1023
1023
1022
1022
1022
1023
1023
1022
1023
1022
425
0
0
0
0
0
0
545
1023
1022
1023
1023
1023
1023
1022
1023
1022
1022
1022
1022
424
0
0
0
0
0
0
166
1022
1022
1023
1022
1022
1023
1022
1023
1023
1023
1023
1022
425
0
0
0
0
0
0
140
1022
1022
1023
1023
1023
1023
1023
1023
1023
1023
1022
1022
352
0
0
0
0
0
0
264
1022
1022
1023
1023
1023
1022
1022
1023
1023
1023
1023
1022
381
0
0
0
0
0
0
631
1023
1022
1022
1022
1022
1023
1022
1022
1022
1022
1023
1022
427
0
0
0
0
0
0
149
1022
1022
1023
1023
1022
1023
1022
1023
1022
1022
1023
1022
344
0
0
0
0
0
0
636
1023
1022
1022
1022
1022
1023
1022
1023
1023
1022
1023
1022
356
0
0
0
0
0
0
162
1022
1022
1022
1023
1022
1023
1023
1023
1022
1022
1023
1022
354
0
0
0
0
0
0
100
1022
1022
1022
1022
1022
1022
1023
1023
1022
1023
1022
1022
293
0
0
0
0
0
0
923
1022
1022
1023
1023
1023
1022
1022
1022
1023
1022
1023
1022
434
0
0
0
0
0
0
0
826
1022
1022
1022
1023
1023
1023
1022
1022
1022
1022
1022
336
0
0
0
0
0
0
447
1023
1022
1023
1022
1022
1023
1022
1022
1022
1023
1022
1022
375
0
0
0
0
0
0
307
1022
1022
1023
1022
1022
1022
1023
1022
1023
1023
1023
1022
253
0
0
0
0
0
0
532
1022
1022
1023
1022
1022
1023
1022
1022
1023
1023
1023
1022
348
0
0
0
0
0
0
844
1022
1022
1022
1023
1023
1023
1023
1022
1022
1023
1022
1022
392
0
0
0
0
0
0
0
927
1022
1023
1023
1022
1023
1022
1022
1023
1022
1023
1023
296
0
0
0
0
0
0
283
1022
1022
1022
1023
1022
1023
1022
1023
1022
1022
1022
1022
415
0
0
0
0
0
0
0
850
1022
1023
1023
1022
1023
1022
1023
1022
1022
1022
1022
249
0
0
0
0
0
0
146
1022
1022
1023
1022
1023
1022
1022
1022
1022
1023
1022
1022
285
0
0
0
0
0
0
560
1022
1023
1023
1023
1023
1023
1023
1023
1022
1023
1023
1022
409
0
0
0
0
0
0
118
1022
1022
1022
1023
1022
1022
1022
1022
1022
1022
1022
1022
327
0
0
0
0
0
0
387
1022
1022
1023
1022
1023
1023
1022
1023
1022
1022
1023
1022
334
0
0
0
0
0
0
0
1014
1022
1023
1023
1022
1023
1022
1023
1022
1022
1023
1022
244
0
0
0
0
0
0
764
1023
1022
1022
1022
1022
1023
1022
1023
1023
1022
1023
1022
379
0
0
0
0
0
0
416
1022
1022
1023
1022
1022
1023
1023
1022
1023
1023
1023
1022
367
0
0
0
0
0
0
0
961
1022
1022
1023
1023
1022
1022
1023
1023
1023
1023
1022
257
0
0
0
0
0
0
136
1022
1022
1022
1022
1022
1023
1023
1022
1023
1023
1023
1022
509
0
0
0
0
0
0
0
508
1023
1023
1022
1022
1022
1022
1023
1022
1022
1023
1022
246
0
0
0
0
0
0
517
1023
1023
1022
1023
1022
1022
1022
1023
1023
1022
1023
1022
278
0
0
0
0
0
0
502
1023
1023
1022
1022
1023
1022
1023
1022
1022
1022
1022
1023
419
0
0
0
0
0
0
59
1022
1023
1022
1022
1022
1022
1023
1023
1022
1023
1022
1022
296
0
0
0
0
0
0
289
1022
1023
1023
1022
1023
1022
1022
1023
1022
1023
1023
1022
463
0
0
0
0
0
0
0
828
1022
1022
1023
1022
1023
1023
1022
1022
1022
1023
1022
178
0
0
0
0
0
0
908
1023
1022
1023
1022
1023
1023
1023
1022
1022
1022
1023
1022
289
0
0
0
0
0
0
336
1023
1022
1023
1023
1022
1023
1023
1022
1023
1022
1023
1022
342
0
0
0
0
0
0
311
1023
1022
1023
1022
1022
1023
1023
1022
1022
1022
1022
1023
194
0
0
0
0
0
0
833
1023
1022
1022
1022
1022
1023
1022
1023
1022
1022
1023
1022
366
0
0
0
0
0
0
0
844
1023
1023
1022
1022
1022
1022
1023
1022
1023
1022
1023
243
0
0
0
0
0
0
519
1022
1023
1023
1022
1022
1022
1023
1023
1022
1023
1022
1023
183
0
0
0
0
0
0
340
1023
1022
1022
1023
1022
1023
1022
1023
1023
1022
1022
1022
364
0
0
0
0
0
0
0
887
1022
1023
1023
1022
1023
1023
1022
1022
1022
1023
1022
214
0
0
0
0
0
0
283
1022
1022
1023
1023
1022
1023
1022
1022
1023
1023
1023
1022
219
0
0
0
0
0
62
1022
1022
1022
1022
1022
1022
1023
1023
1022
1023
1022
1022
1022
249
0
0
0
0
0
0
836
1023
1023
1023
1023
1022
1023
1022
1023
1022
1023
1023
1023
337
0
0
0
0
0
0
50
1020
1022
1022
1023
1022
1022
1023
1022
1022
1023
1022
1022
260
0
0
0
0
0
0
0
857
1022
1022
1022
1022
1023
1022
1023
1022
1022
1023
1022
184
0
0
0
0
0
0
0
1003
1022
1022
1023
1022
1023
1022
1023
1022
1022
1023
1022
204
0
0
0
0
0
0
687
1023
1023
1022
1022
1022
1022
1023
1023
1022
1023
1023
1023
313
0
0
0
0
0
0
0
927
1022
1022
1023
1023
1023
1023
1023
1022
1022
1023
1022
206
0
0
0
0
0
0
719
1023
1022
1023
1022
1022
1022
1023
1023
1022
1022
1022
1022
357
0
0
0
0
0
0
0
962
1022
1023
1022
1022
1022
1022
1023
1022
1022
1022
1023
149
0
0
0
0
0
0
583
1023
1022
1022
1023
1022
1023
1023
1023
1022
1022
1023
1022
207
0
0
0
0
0
0
774
1023
1022
1023
1023
1022
1023
1022
1023
1022
1022
1023
1022
210
0
0
0
0
0
0
357
1022
1023
1023
1023
1022
1023
1022
1023
1022
1023
1022
1022
273
0
0
0
0
0
0
469
1022
1022
1022
1022
1023
1022
1023
1023
1022
1023
1022
1022
252
0
0
0
0
0
0
0
972
1022
1023
1022
1022
1022
1023
1022
1022
1022
1023
1022
126
0
0
0
0
0
0
571
1023
1022
1023
1022
1022
1023
1023
1022
1022
1022
1023
1022
271
0
0
0
0
0
0
328
1023
1022
1023
1023
1022
1023
1022
1023
1022
1022
1023
1022
235
0
0
0
0
0
0
0
993
1022
1022
1023
1022
1023
1023
1023
1022
1022
1023
1022
200
0
0
0
0
0
0
378
1022
1022
1023
1022
1023
1023
1022
1023
1023
1022
1023
1022
336
0
0
0
0
0
0
0
944
1023
1022
1023
1023
1023
1023
1023
1022
1022
1023
1022
143
0
0
0
0
0
0
404
1022
1023
1022
1023
1023
1022
1022
1022
1022
1023
1022
1023
194
0
0
0
0
0
0
571
1022
1022
1022
1023
1022
1022
1023
1023
1022
1022
1022
1022
263
0
0
0
0
0
0
84
1022
1023
1023
1022
1022
1023
1022
1022
1022
1022
1023
1022
923
0
0
0
0
0
0
0
0
0
0
0
0
0
0
0
0
648
1023
0
0
0
0
0
0
0
0
0
998
1023
1023
1022
1023
1022
1023
1022
1022
1022
1023
1023
687
0
0
0
0
0
0
191
1023
1022
1023
1023
1022
1023
1023
1022
1022
1022
1022
1022
473
0
0
0
0
0
0
468
1022
1022
1023
1022
1022
1022
1023
1022
1022
1023
1022
1022
541
0
0
0
0
0
0
170
1022
1023
1022
1022
1022
1023
1022
1022
1022
1022
1023
1022
324
0
0
0
0
0
0
257
1022
1023
1023
1022
1022
1023
1022
1023
1022
1022
1023
1023
569
0
0
0
0
0
0
0
593
1023
1022
1022
1023
1022
1023
1023
1022
1022
1022
1022
264
0
0
0
0
0
0
563
1023
1022
1023
1022
1022
1023
1023
1023
1022
1022
1023
1022
281
0
0
0
0
0
0
340
1023
1022
1022
1023
1023
1022
1022
1023
1023
1022
1022
1023
352
0
0
0
0
0
0
0
1018
1022
1023
1023
1023
1023
1023
1023
1022
1022
1022
1022
247
0
0
0
0
0
0
93
1022
1022
1023
1022
1022
1023
1022
1023
1022
1022
1023
1022
480
0
0
0
0
0
0
0
318
1022
1023
1022
1022
1023
1022
1023
1022
1022
1023
1022
124
0
0
0
0
0
0
542
1023
1022
1023
1023
1022
1023
1022
1023
1022
1022
1023
1023
275
0
0
0
0
0
0
284
1022
1023
1023
1022
1022
1022
1022
1022
1022
1023
1022
1022
372
0
0
0
0
0
0
0
630
1023
1023
1023
1023
1022
1022
1023
1022
1023
1022
1022
102
0
0
0
0
0
0
220
1022
1022
1023
1022
1022
1023
1023
1023
1022
1022
1022
1022
355
0
0
0
0
0
0
0
679
1023
1022
1023
1023
1023
1023
1023
1022
1022
1023
1022
219
0
0
0
0
0
0
384
1023
1022
1023
1022
1023
1022
1022
1022
1023
1022
1023
1022
229
0
0
0
0
0
0
80
1022
1023
1023
1022
1022
1023
1023
1023
1022
1022
1022
1022
256
0
0
0
0
0
0
308
1022
1023
1022
1022
1023
1022
1023
1022
1023
1023
1022
1022
305
0
0
0
0
0
0
0
827
1023
1023
1023
1023
1022
1023
1022
1023
1023
1023
1022
180
0
0
0
0
0
0
447
1022
1023
1023
1023
1022
1023
1022
1023
1023
1022
1023
1022
248
0
0
0
0
0
0
485
1022
1022
1022
1023
1022
1023
1023
1023
1022
1022
1023
1023
231
0
0
0
0
0
0
591
1022
1022
1023
1022
1022
1023
1022
1022
1022
1022
1023
1023
263
0
0
0
0
0
0
182
1022
1022
1023
1023
1022
1022
1023
1022
1022
1022
1022
1022
144
0
0
0
0
0
0
230
1022
1023
1023
1023
1023
1022
1023
1023
1023
1023
1022
1023
172
0
0
0
0
0
0
385
1022
1022
1023
1022
1023
1022
1023
1022
1022
1022
1022
1022
239
0
0
0
0
0
0
0
921
1023
1023
1022
1023
1022
1022
1023
1023
1023
1022
1023
163
0
0
0
0
0
0
367
1022
1023
1022
1022
1022
1023
1023
1023
1022
1022
1023
1022
245
0
0
0
0
0
0
166
1022
1023
1022
1023
1022
1023
1022
1022
1023
1022
1023
1023
190
0
0
0
0
0
0
1
1019
1023
1023
1023
1022
1023
1022
1023
1022
1022
1023
1023
175
0
0
0
0
0
0
514
1023
1023
1023
1023
1023
1022
1022
1022
1022
1023
1022
1023
234
0
0
0
0
0
0
0
839
1022
1022
1022
1022
1023
1023
1022
1023
1022
1023
1022
167
0
0
0
0
0
0
723
1022
1022
1023
1023
1022
1022
1023
1022
1022
1023
1023
1023
373
0
0
0
0
0
0
0
1018
1022
1023
1023
1022
1023
1023
1022
1022
1022
1023
1022
61
0
0
0
0
0
0
406
1023
1022
1023
1022
1022
1023
1022
1023
1022
1022
1023
1023
204
0
0
0
0
0
0
651
1023
1022
1022
1023
1022
1023
1023
1023
1023
1022
1023
1023
203
0
0
0
0
0
0
0
833
1023
1023
1022
1022
1023
1022
1022
1022
1023
1022
1022
107
0
0
0
0
0
0
414
1023
1022
1022
1022
1023
1023
1023
1022
1022
1023
1022
1022
248
0
0
0
0
0
0
73
1022
1022
1022
1023
1023
1022
1023
1022
1022
1023
1023
1022
160
0
0
0
0
0
0
182
1022
1022
1023
1023
1022
1023
1023
1023
1022
1022
1023
1022
119
0
0
0
0
0
0
627
1023
1022
1023
1022
1022
1023
1023
1022
1023
1022
1022
1023
216
0
0
0
0
0
0
0
1012
1022
1023
1022
1022
1023
1023
1023
1022
1022
1023
1022
199
0
0
0
0
0
0
94
1022
1023
1023
1022
1023
1022
1023
1022
1022
1022
1022
1022
326
0
0
0
0
0
0
0
707
1022
1023
1023
1023
1022
1023
1022
1023
1023
1022
1023
73
0
0
0
0
0
0
694
1023
1023
1023
1022
1022
1023
1022
1023
1022
1023
1022
1022
213
0
0
0
0
0
0
391
1022
1023
1022
1022
1022
1023
1022
1023
1022
1022
1023
1022
252
0
0
0
0
0
0
0
1015
1023
1023
1022
1022
1023
1022
1023
1022
1022
1023
1022
65
0
0
0
0
0
0
386
1022
1023
1022
1022
1022
1023
1023
1022
1022
1022
1022
1022
407
0
0
0
0
0
0
0
896
1023
1023
1023
1023
1022
1022
1023
1023
1022
1022
1023
152
0
0
0
0
0
0
711
1022
1022
1022
1023
1023
1022
1023
1023
1022
1022
1023
1023
150
0
0
0
0
0
0
500
1022
1022
1023
1022
1023
1022
1023
1022
1022
1023
1022
1022
169
0
0
0
0
0
0
195
1022
1023
1022
1022
1022
1023
1022
1023
1022
1022
1022
1023
88
0
0
0
0
0
0
563
1022
1022
1023
1023
1022
1022
1022
1022
1022
1022
1023
1023
396
0
0
0
0
0
0
0
946
1023
1022
1022
1022
1023
1023
1022
1023
1023
1022
1023
2
0
0
0
0
0
120
1022
1023
1023
1023
1022
1022
1022
1023
1023
1023
1023
1022
1022
204
0
0
0
0
0
0
453
1022
1022
1022
1022
1023
1023
1022
1022
1022
1022
1023
1022
156
0
0
0
0
0
0
635
1023
1022
1023
1022
1022
1023
1022
1022
1022
1023
1022
1022
79
0
0
0
0
0
0
480
1023
1022
1023
1022
1022
1023
1023
1022
1022
1022
1023
1022
32
0
0
0
0
0
0
780
1023
1022
1023
1023
1022
1022
1022
1022
1022
1022
1023
1023
57
0
0
0
0
0
65
1021
1023
1022
1022
1023
1022
1023
1022
1023
1023
1022
1022
1023
157
0
0
0
0
0
44
1019
1023
1023
1023
1023
1023
1022
1022
1023
1022
1023
1022
1023
53
0
0
0
0
0
0
804
1023
1023
1023
1022
1023
1022
1023
1023
1022
1022
1023
1022
60
0
0
0
0
0
0
893
1023
1023
1022
1023
1023
1022
1022
1023
1022
1022
1022
1023
69
0
0
0
0
0
59
1019
1023
1023
1022
1022
1022
1023
1023
1023
1023
1022
1022
1022
84
0
0
0
0
0
0
506
1022
1023
1023
1022
1022
1023
1023
1022
1022
1022
1023
1022
34
0
0
0
0
0
2
1009
1022
1022
1022
1022
1023
1022
1023
1022
1022
1022
1022
1022
167
0
0
0
0
0
0
431
1022
1022
1023
1022
1022
1022
1023
1022
1023
1023
1022
1022
9
0
0
0
0
0
0
706
1023
1023
1022
1022
1022
1022
1023
1023
1023
1022
1023
1023
14
0
0
0
0
0
0
972
1022
1022
1023
1022
1022
1022
1022
1023
1022
1023
1022
1023
118
0
0
0
0
0
0
286
1022
1022
1022
1023
1022
1023
1023
1023
1022
1022
1022
1023
40
0
0
0
0
0
0
897
1023
1023
1023
1023
1022
1022
1022
1022
1023
1022
1023
1023
219
0
0
0
0
0
0
598
1022
1022
1023
1022
1023
1022
1023
1023
1023
1023
1022
1022
57
0
0
0
0
0
0
669
1022
1022
1023
1022
1023
1022
1023
1022
1022
1022
1022
1022
29
0
0
0
0
0
0
856
1022
1023
1022
1023
1022
1023
1023
1023
1023
1022
1022
1022
73
0
0
0
0
0
0
251
1022
1023
1023
1023
1022
1022
1022
1023
1023
1022
1023
1022
95
0
0
0
0
0
0
545
1022
1022
1022
1022
1022
1022
1023
1023
1022
1022
1022
1022
254
0
0
0
0
0
0
0
887
1023
1023
1022
1022
1022
1022
1023
1023
1022
1023
1022
35
0
0
0
0
0
0
214
1022
1022
1022
1022
1022
1023
1023
1023
1022
1022
1022
1023
179
0
0
0
0
0
0
341
1023
1022
1023
1022
1022
1022
1023
1023
1022
1023
1022
1022
175
0
0
0
0
0
0
0
653
1022
1022
1023
1022
1022
1023
1022
1023
1023
1022
1022
124
0
0
0
0
0
0
242
1022
1022
1023
1022
1022
1022
1023
1022
1022
1022
1023
1023
319
0
0
0
0
0
0
0
577
1023
1023
1023
1022
1023
1023
1022
1023
1022
1022
1022
161
0
0
0
0
0
0
0
820
1023
1023
1023
1022
1022
1023
1023
1022
1022
1023
1023
182
0
0
0
0
0
0
99
1022
1022
1022
1022
1022
1023
1023
1023
1023
1022
1022
1022
251
0
0
0
0
0
0
0
507
1023
1022
1022
1022
1022
1023
1023
1023
1022
1022
1022
202
0
0
0
0
0
0
0
732
1022
1022
1023
1022
1023
1023
1023
1022
1022
1023
1022
492
0
0
0
0
0
0
0
0
966
1023
1022
1022
1022
1023
1022
1022
1022
1023
1023
205
0
0
0
0
0
0
0
689
1022
1022
1023
1022
1022
1023
1023
1023
1022
1023
1022
292
0
0
0
0
0
0
0
480
1022
1022
1022
1022
1023
1023
1022
1022
1022
1023
1022
423
0
0
0
0
0
0
0
12
1022
1022
1023
1023
1022
1023
1023
1022
1023
1022
1022
331
0
0
0
0
0
0
0
229
1022
1022
1022
1023
1022
1023
1023
1023
1022
1023
1023
606
0
0
0
0
0
0
0
0
0
0
739
1022
1023
1023
1022
1022
1022
1022
1023
191
0
0
0
0
0
0
0
208
1022
1023
1022
1022
1022
1023
1023
1023
1022
1023
1022
598
0
0
0
0
0
0
0
0
0
0
451
1023
1022
1023
1023
1022
1022
1022
1022
355
0
0
0
0
0
0
0
0
0
0
0
698
1022
1023
1022
1022
1023
1022
1023
99
0
0
0
0
0
0
0
0
0
243
952
1022
1022
1022
1022
1022
1022
1023
1023
782
0
0
0
0
0
0
0
0
0
0
0
0
535
1022
1022
1022
1023
1022
1022
0
0
0
0
0
0
0
0
0
0
326
1022
1023
1022
1023
1023
1022
1023
1022
1022
728
0
0
0
0
0
0
0
0
0
0
489
1023
1022
1022
1023
1022
1022
1023
1023
670
0
0
0
0
0
0
0
0
0
0
215
1022
1023
1023
1023
1022
1022
1023
1022
558
0
0
0
0
0
0
0
0
0
0
767
1022
1022
1022
1023
1022
1022
1023
1023
640
0
0
0
0
0
0
0
0
239
863
1022
1022
1022
1023
1022
1022
1022
1022
1022
1014
0
0
0
0
0
0
0
0
0
0
489
1023
1022
1023
1022
1022
1022
1023
1023
740
0
0
0
0
0
0
0
0
0
0
167
1022
1023
1023
1023
1022
1023
1022
1022
644
0
0
0
0
0
0
0
0
0
0
419
1022
1022
1023
1022
1023
1022
1023
1023
709
0
0
0
0
0
0
0
0
0
0
650
1022
1022
1022
1023
1023
1022
1022
1022
697
0
0
0
0
0
0
0
0
684
1022
1022
1023
1022
1022
1022
1022
1023
1022
1023
1022
0
0
0
0
0
0
0
0
0
0
804
1022
1022
1023
1023
1022
1023
1022
1022
772
0
0
0
0
0
0
0
0
0
491
1023
1022
1023
1022
1022
1023
1022
1022
1022
1017
0
0
0
0
0
0
0
0
0
435
1022
1023
1022
1023
1022
1022
1022
1022
1022
725
0
0
0
0
0
0
0
0
688
1023
1022
1022
1022
1022
1023
1023
1022
1023
1023
806
0
0
0
0
0
0
0
1017
1023
1022
1022
1022
1022
1022
1023
1022
1022
1022
1023
1022
0
0
0
0
0
0
0
0
975
1023
1022
1022
1022
1023
1023
1022
1023
1022
1022
792
0
0
0
0
0
0
0
673
1022
1022
1022
1023
1023
1023
1022
1022
1022
1022
1023
945
0
0
0
0
0
0
0
271
1022
1023
1022
1023
1022
1022
1023
1022
1022
1023
1023
635
0
0
0
0
0
0
0
321
1022
1023
1022
1023
1022
1023
1022
1022
1022
1022
1023
640
0
0
0
0
0
0
0
1014
1023
1022
1023
1022
1022
1023
1022
1022
1022
1022
1022
775
0
0
0
0
0
0
0
355
1023
1022
1023
1022
1022
1023
1023
1023
1022
1022
1022
578
0
0
0
0
0
0
0
493
1023
1023
1023
1023
1023
1023
1022
1022
1023
1023
1023
732
0
0
0
0
0
0
0
0
109
748
1022
1023
1022
1023
1023
1022
1022
1022
1022
384
0
0
0
0
0
0
0
0
890
1023
1023
1022
1022
1022
1023
1023
1022
1022
1022
556
0
0
0
0
0
0
0
391
1023
1023
1022
1023
1022
1023
1023
1022
1022
1023
1023
627
0
0
0
0
0
0
0
160
1022
1023
1022
1022
1023
1023
1023
1022
1022
1022
1022
633
0
0
0
0
0
0
0
0
736
1023
1022
1022
1022
1023
1022
1022
1023
1022
1023
573
0
0
0
0
0
0
0
0
0
280
1022
1023
1022
1022
1022
1022
1023
1022
1023
384
0
0
0
0
0
0
0
0
755
1022
1023
1023
1023
1023
1023
1022
1022
1023
1023
630
0
0
0
0
0
0
0
0
431
1022
1022
1022
1022
1023
1023
1023
1022
1022
1022
481
0
0
0
0
0
0
0
0
1017
1022
1023
1022
1022
1023
1023
1023
1022
1022
1023
558
0
0
0
0
0
0
0
539
1023
1022
1023
1022
1022
1023
1022
1022
1022
1023
1023
830
0
0
0
0
0
0
0
0
0
0
895
1022
1022
1023
1022
1023
1022
1023
1022
276
0
0
0
0
0
0
0
814
1023
1023
1023
1022
1023
1022
1023
1022
1022
1022
1023
591
0
0
0
0
0
0
0
596
1023
1023
1022
1022
1022
1023
1022
1022
1022
1022
1022
539
0
0
0
0
0
0
0
405
1022
1023
1022
1023
1022
1022
1023
1022
1023
1022
1022
533
0
0
0
0
0
0
0
601
1023
1022
1023
1022
1022
1022
1022
1022
1022
1022
1022
730
0
0
0
0
0
0
0
0
226
873
1022
1022
1022
1023
1022
1023
1022
1023
1022
316
0
0
0
0
0
0
0
878
1023
1022
1023
1022
1022
1023
1022
1022
1022
1022
1023
596
0
0
0
0
0
0
0
168
1022
1023
1023
1023
1022
1023
1023
1022
1023
1022
1023
472
0
0
0
0
0
0
0
124
1022
1022
1023
1022
1022
1023
1023
1023
1022
1023
1023
369
0
0
0
0
0
0
0
421
1023
1022
1022
1023
1023
1023
1023
1022
1023
1022
1022
659
0
0
0
0
0
0
0
0
621
1022
1023
1022
1022
1023
1022
1022
1022
1022
1022
357
0
0
0
0
0
0
0
750
1023
1023
1023
1023
1022
1023
1022
1022
1022
1022
1022
511
0
0
0
0
0
0
0
310
1023
1022
1022
1022
1022
1023
1022
1023
1022
1022
1022
426
0
0
0
0
0
0
0
310
1023
1023
1022
1022
1022
1023
1022
1023
1023
1022
1022
449
0
0
0
0
0
0
0
404
1022
1022
1022
1022
1022
1023
1022
1022
1023
1022
1022
327
0
0
0
0
0
0
0
900
1022
1023
1022
1022
1022
1023
1023
1022
1022
1023
1023
502
0
0
0
0
0
0
0
838
1022
1023
1023
1023
1022
1023
1023
1022
1022
1022
1023
453
0
0
0
0
0
0
0
664
1023
1023
1023
1022
1022
1023
1022
1023
1022
1022
1023
427
0
0
0
0
0
0
0
327
1022
1022
1022
1022
1023
1023
1023
1022
1022
1023
1022
312
0
0
0
0
0
0
0
401
1023
1023
1022
1022
1022
1022
1023
1022
1023
1022
1023
277
0
0
0
0
0
0
0
1007
1023
1022
1023
1023
1022
1022
1022
1022
1023
1022
1022
520
0
0
0
0
0
0
0
443
1022
1023
1023
1022
1023
1023
1023
1022
1022
1022
1023
293
0
0
0
0
0
0
0
801
1022
1023
1022
1023
1023
1023
1022
1022
1022
1022
1022
460
0
0
0
0
0
0
0
350
1023
1023
1023
1022
1022
1023
1022
1023
1022
1022
1023
357
0
0
0
0
0
0
0
271
1022
1023
1023
1023
1023
1023
1023
1023
1022
1022
1022
179
0
0
0
0
0
0
183
1022
1022
1023
1023
1022
1022
1023
1022
1022
1023
1023
1023
501
0
0
0
0
0
0
0
396
1023
1022
1022
1022
1022
1023
1023
1022
1022
1022
1023
368
0
0
0
0
0
0
0
580
1023
1023
1022
1022
1023
1023
1023
1022
1022
1022
1023
446
0
0
0
0
0
0
0
353
1022
1022
1022
1022
1022
1023
1022
1022
1022
1022
1023
275
0
0
0
0
0
0
0
397
1022
1023
1023
1022
1022
1023
1022
1023
1023
1023
1023
286
0
0
0
0
0
0
0
974
1023
1022
1022
1022
1022
1023
1023
1023
1023
1022
1023
459
0
0
0
0
0
0
0
314
1023
1022
1022
1023
1022
1023
1023
1023
1022
1022
1022
367
0
0
0
0
0
0
0
485
1023
1022
1022
1023
1023
1023
1023
1022
1022
1022
1022
512
0
0
0
0
0
0
0
0
173
828
1022
1023
1023
1022
1022
1022
1023
1022
1022
236
0
0
0
0
0
0
0
109
1022
1022
1023
1022
1022
1023
1023
1022
1022
1022
1022
435
0
0
0
0
0
0
0
444
1022
1023
1023
1022
1022
1023
1022
1022
1022
1022
1023
418
0
0
0
0
0
0
0
305
1022
1023
1023
1023
1022
1023
1022
1022
1022
1022
1023
414
0
0
0
0
0
0
0
580
1023
1022
1023
1022
1022
1022
1022
1023
1023
1023
1023
515
0
0
0
0
0
0
0
193
1022
1022
1023
1023
1022
1023
1022
1022
1022
1023
1023
330
0
0
0
0
0
0
0
770
1023
1023
1022
1023
1022
1023
1023
1022
1023
1022
1023
474
0
0
0
0
0
0
0
498
1022
1022
1022
1022
1022
1023
1022
1023
1022
1022
1023
384
0
0
0
0
0
0
0
310
1022
1023
1023
1023
1022
1023
1022
1023
1022
1022
1023
419
0
0
0
0
0
0
0
342
1022
1023
1023
1022
1022
1022
1023
1022
1023
1022
1023
617
0
0
0
0
0
0
0
0
0
0
279
1022
1022
1022
1022
1022
1022
1022
1023
181
0
0
0
0
0
0
0
0
756
1022
1022
1023
1022
1023
1023
1022
1023
1022
1023
445
0
0
0
0
0
0
0
0
397
1022
1022
1022
1022
1023
1022
1023
1023
1022
1023
437
0
0
0
0
0
0
0
0
318
962
1023
1022
1022
1022
1022
1022
1022
1022
1023
447
0
0
0
0
0
0
0
0
602
1022
1022
1023
1022
1023
1022
1022
1023
1022
1023
676
0
0
0
0
0
0
0
0
0
0
167
1022
1023
1023
1023
1022
1023
1023
1023
190
0
0
0
0
0
0
0
742
1023
1022
1022
1022
1023
1023
1023
1023
1023
1022
1023
704
0
0
0
0
0
0
0
0
477
1022
1023
1023
1022
1023
1022
1022
1022
1022
1022
451
0
0
0
0
0
0
0
0
931
1023
1023
1023
1023
1023
1023
1022
1023
1022
1023
429
0
0
0
0
0
0
0
698
1022
1022
1022
1023
1022
1023
1023
1023
1023
1022
1023
759
0
0
0
0
0
0
0
0
930
1022
1022
1022
1022
1023
1023
1022
1022
1022
1023
460
0
0
0
0
0
0
0
719
1023
1022
1022
1023
1022
1023
1023
1023
1023
1023
1023
462
0
0
0
0
0
0
0
465
1022
1023
1022
1023
1022
1023
1022
1022
1022
1022
1023
429
0
0
0
0
0
0
0
535
1022
1022
1022
1023
1022
1023
1023
1023
1022
1022
1022
454
0
0
0
0
0
0
0
508
1023
1022
1022
1022
1022
1023
1023
1023
1022
1022
1023
302
0
0
0
0
0
0
86
1022
1022
1022
1023
1022
1022
1023
1023
1023
1023
1022
1023
509
0
0
0
0
0
0
0
771
1023
1023
1023
1022
1022
1023
1022
1022
1022
1022
1023
467
0
0
0
0
0
0
0
403
1022
1022
1022
1022
1023
1023
1022
1022
1022
1022
1023
326
0
0
0
0
0
0
0
489
1023
1023
1022
1023
1022
1023
1023
1022
1023
1023
1023
323
0
0
0
0
0
0
0
296
1022
1022
1022
1023
1022
1023
1022
1022
1022
1022
1023
165
0
0
0
0
0
0
0
958
1023
1023
1022
1023
1022
1023
1022
1022
1022
1022
1023
494
0
0
0
0
0
0
0
385
1023
1023
1023
1023
1022
1022
1022
1022
1023
1022
1023
337
0
0
0
0
0
0
0
498
1023
1023
1023
1023
1022
1022
1022
1023
1022
1023
1022
403
0
0
0
0
0
0
0
189
1022
1022
1022
1022
1022
1023
1022
1022
1023
1022
1022
296
0
0
0
0
0
0
0
104
1022
1023
1023
1022
1023
1023
1022
1023
1022
1022
1022
164
0
0
0
0
0
0
0
1022
1023
1022
1022
1023
1022
1023
1022
1022
1023
1022
1023
518
0
0
0
0
0
0
0
153
1022
1023
1022
1022
1022
1023
1022
1022
1022
1022
1023
344
0
0
0
0
0
0
0
253
1023
1023
1023
1023
1022
1023
1022
1022
1023
1022
1023
464
0
0
0
0
0
0
0
0
544
1022
1023
1023
1022
1022
1022
1023
1023
1022
1023
189
0
0
0
0
0
0
0
0
1012
1023
1022
1023
1022
1023
1022
1022
1022
1022
1023
301
0
0
0
0
0
0
0
641
1023
1023
1023
1022
1023
1022
1022
1022
1022
1022
1023
488
0
0
0
0
0
0
0
291
1023
1023
1022
1023
1022
1023
1022
1023
1022
1022
1023
376
0
0
0
0
0
0
0
442
1023
1022
1023
1023
1022
1023
1023
1023
1023
1022
1023
532
0
0
0
0
0
0
0
0
0
94
1020
1023
1022
1023
1022
1023
1023
1022
1023
167
0
0
0
0
0
0
0
0
235
892
1023
1023
1022
1023
1022
1023
1023
1022
1023
338
0
0
0
0
0
0
0
270
1023
1022
1023
1022
1023
1023
1022
1023
1022
1022
1023
427
0
0
0
0
0
0
0
366
1023
1022
1022
1022
1022
1023
1023
1022
1023
1022
1023
575
0
0
0
0
0
0
0
0
438
1021
1022
1022
1022
1023
1022
1022
1023
1022
1023
449
0
0
0
0
0
0
0
0
0
0
840
1022
1022
1023
1022
1023
1023
1022
1023
205
0
0
0
0
0
0
0
11
1022
1023
1023
1022
1023
1023
1023
1023
1023
1022
1023
543
0
0
0
0
0
0
0
0
340
1002
1023
1023
1022
1023
1022
1023
1023
1023
1022
385
0
0
0
0
0
0
0
0
818
1023
1023
1023
1023
1023
1023
1022
1023
1022
1023
407
0
0
0
0
0
0
0
560
1023
1023
1023
1022
1022
1023
1023
1022
1022
1022
1023
755
0
0
0
0
0
0
0
0
0
0
14
1022
1022
1022
1023
1022
1023
1022
1023
73
0
0
0
0
0
0
0
104
1022
1023
1022
1023
1022
1023
1023
1023
1023
1022
1023
497
0
0
0
0
0
0
0
0
977
1022
1022
1023
1022
1023
1023
1023
1023
1022
1022
447
0
0
0
0
0
0
0
0
911
1023
1023
1023
1022
1023
1023
1023
1023
1022
1023
459
0
0
0
0
0
0
0
32
984
1023
1023
1023
1022
1023
1022
1022
1023
1022
1023
663
0
0
0
0
0
0
0
0
0
0
583
1023
1022
1023
1022
1023
1023
1022
1023
206
0
0
0
0
0
0
0
307
1023
1023
1022
1022
1023
1023
1023
1022
1022
1022
1023
533
0
0
0
0
0
0
0
0
400
1022
1023
1023
1022
1023
1023
1023
1023
1022
1023
409
0
0
0
0
0
0
0
0
300
907
1023
1022
1022
1023
1022
1022
1023
1022
1023
318
0
0
0
0
0
0
0
0
995
1023
1023
1023
1022
1023
1022
1022
1023
1023
1023
680
0
0
0
0
0
0
0
0
0
0
849
1023
1022
1023
1022
1022
1023
1022
1023
280
0
0
0
0
0
0
0
0
895
1022
1023
1023
1022
1023
1022
1023
1022
1022
1022
521
0
0
0
0
0
0
0
0
0
332
1022
1023
1022
1023
1022
1023
1023
1022
1023
354
0
0
0
0
0
0
0
0
489
1022
1023
1023
1022
1023
1022
1023
1023
1022
1023
471
0
0
0
0
0
0
0
0
347
939
1023
1023
1022
1023
1023
1023
1023
1022
1023
301
0
0
0
0
0
0
0
795
1023
1023
1023
1023
1022
1023
1023
1022
1023
1022
1022
704
0
0
0
0
0
0
0
0
444
1021
1023
1022
1022
1022
1023
1023
1023
1022
1022
465
0
0
0
0
0
0
0
0
0
450
1022
1022
1023
1023
1023
1023
1023
1023
1023
365
0
0
0
0
0
0
0
0
247
831
1023
1022
1022
1023
1022
1022
1023
1022
1023
344
0
0
0
0
0
0
0
0
663
1023
1023
1023
1022
1023
1022
1023
1023
1022
1023
368
0
0
0
0
0
0
0
661
1023
1022
1022
1023
1022
1023
1022
1023
1023
1022
1023
682
0
0
0
0
0
0
0
0
0
397
1023
1022
1023
1023
1022
1023
1022
1022
1023
318
0
0
0
0
0
0
0
0
228
796
1022
1022
1022
1023
1023
1023
1023
1023
1023
508
0
0
0
0
0
0
0
0
0
262
1022
1022
1022
1023
1022
1022
1023
1022
1023
267
0
0
0
0
0
0
0
0
0
238
1023
1022
1023
1023
1023
1022
1022
1023
1023
204
0
0
0
0
0
0
0
868
1023
1023
1023
1023
1022
1023
1022
1023
1023
1022
1023
730
0
0
0
0
0
0
0
0
181
745
1023
1023
1022
1023
1022
1022
1023
1022
1023
473
0
0
0
0
0
0
0
0
0
119
1022
1023
1022
1022
1022
1022
1022
1022
1023
443
0
0
0
0
0
0
0
0
0
0
955
1022
1022
1023
1023
1022
1022
1022
1023
216
0
0
0
0
0
0
0
0
537
1022
1023
1023
1022
1023
1022
1022
1022
1022
1023
548
0
0
0
0
0
0
0
0
952
1022
1022
1022
1022
1023
1022
1023
1023
1022
1023
541
0
0
0
0
0
0
0
0
556
1022
1023
1023
1022
1023
1023
1023
1023
1022
1023
475
0
0
0
0
0
0
0
0
197
713
1023
1023
1022
1023
1022
1023
1023
1022
1023
529
0
0
0
0
0
0
0
0
0
0
320
1023
1023
1023
1022
1022
1022
1022
1023
105
0
0
0
0
0
0
0
0
0
419
1022
1023
1022
1023
1023
1022
1023
1022
1023
431
0
0
0
0
0
0
0
31
1014
1023
1023
1023
1022
1023
1022
1023
1022
1023
1023
600
0
0
0
0
0
0
0
0
404
973
1023
1022
1022
1023
1023
1022
1022
1022
1023
481
0
0
0
0
0
0
0
0
438
981
1023
1023
1022
1023
1022
1023
1022
1023
1023
619
0
0
0
0
0
0
0
0
0
0
0
942
1022
1023
1022
1023
1023
1022
1023
27
0
0
0
0
0
0
0
0
117
681
1023
1023
1022
1023
1023
1023
1023
1022
1023
546
0
0
0
0
0
0
0
0
0
166
1022
1023
1022
1023
1022
1022
1023
1022
1023
435
0
0
0
0
0
0
0
0
384
939
1022
1023
1022
1023
1023
1022
1023
1022
1023
507
0
0
0
0
0
0
0
0
451
975
1023
1023
1022
1023
1023
1022
1023
1022
1023
755
0
0
0
0
0
0
0
0
0
0
0
127
890
1023
1023
1023
1022
1022
1023
0
0
0
0
0
0
0
0
0
48
593
1022
1023
1022
1023
1022
1023
1023
1022
1023
542
0
0
0
0
0
0
0
0
0
555
1023
1023
1022
1023
1022
1023
1023
1022
1023
552
0
0
0
0
0
0
0
0
0
217
1022
1023
1022
1023
1022
1023
1023
1022
1023
509
0
0
0
0
0
0
0
0
0
311
1022
1022
1023
1023
1022
1023
1022
1022
1022
730
0
0
0
0
0
0
0
0
0
0
0
171
932
1023
1022
1022
1023
1022
1023
0
0
0
0
0
0
0
0
0
534
1022
1023
1023
1022
1023
1022
1022
1023
1022
1023
780
0
0
0
0
0
0
0
0
0
0
1022
1023
1022
1023
1022
1022
1022
1022
1023
503
0
0
0
0
0
0
0
0
86
593
1022
1022
1022
1023
1022
1022
1023
1022
1023
561
0
0
0
0
0
0
0
0
772
1022
1022
1022
1022
1023
1023
1022
1022
1022
1023
789
0
0
0
0
0
0
0
0
0
414
1023
1022
1022
1023
1022
1023
1022
1022
1023
601
0
0
0
0
0
0
0
0
142
664
1023
1022
1022
1023
1022
1023
1023
1022
1023
499
0
0
0
0
0
0
0
0
207
771
1023
1023
1022
1023
1022
1023
1023
1022
1023
568
0
0
0
0
0
0
0
0
195
723
1023
1023
1022
1023
1023
1022
1023
1022
1023
537
0
0
0
0
0
0
0
0
126
635
1023
1022
1023
1023
1022
1023
1022
1023
1022
364
0
0
0
0
0
0
0
897
1023
1023
1022
1023
1022
1023
1022
1023
1022
1022
1023
823
0
0
0
0
0
0
0
0
555
1022
1023
1023
1022
1022
1023
1022
1023
1022
1023
540
0
0
0
0
0
0
0
0
0
0
1022
1022
1022
1023
1022
1023
1023
1022
1023
331
0
0
0
0
0
0
0
0
193
728
1023
1023
1022
1023
1022
1023
1023
1022
1023
344
0
0
0
0
0
0
0
0
555
1022
1023
1023
1022
1023
1022
1023
1023
1022
1023
367
0
0
0
0
0
0
0
718
1023
1023
1022
1023
1022
1022
1023
1023
1022
1022
1023
683
0
0
0
0
0
0
0
0
0
450
1022
1022
1022
1023
1023
1022
1023
1022
1022
332
0
0
0
0
0
0
0
0
86
615
1022
1022
1022
1023
1023
1022
1022
1022
1023
437
0
0
0
0
0
0
0
0
0
99
1022
1023
1022
1023
1023
1023
1023
1022
1023
210
0
0
0
0
0
0
0
0
0
105
1022
1023
1022
1023
1022
1023
1023
1022
1023
139
0
0
0
0
0
0
0
839
1023
1022
1022
1022
1022
1023
1022
1022
1022
1022
1023
649
0
0
0
0
0
0
0
0
273
811
1022
1022
1022
1023
1023
1023
1023
1022
1023
393
0
0
0
0
0
0
0
0
176
669
1022
1022
1022
1023
1022
1022
1022
1022
1023
519
0
0
0
0
0
0
0
0
0
0
406
1023
1022
1023
1022
1023
1023
1023
1023
0
0
0
0
0
0
0
0
0
226
807
1022
1023
1022
1023
1022
1023
1023
1022
1023
368
0
0
0
0
0
0
0
513
1023
1023
1023
1023
1022
1023
1022
1022
1023
1022
1023
639
0
0
0
0
0
0
0
0
0
455
1023
1023
1022
1023
1023
1023
1023
1022
1023
320
0
0
0
0
0
0
0
0
120
610
1023
1022
1022
1023
1022
1022
1023
1023
1023
467
0
0
0
0
0
0
0
0
0
0
608
1023
1022
1023
1022
1023
1023
1022
1023
69
0
0
0
0
0
0
0
0
0
166
1022
1023
1023
1022
1023
1023
1023
1023
1023
335
0
0
0
0
0
0
0
0
475
1019
1023
1023
1022
1023
1022
1023
1023
1022
1023
464
0
0
0
0
0
0
0
0
550
1022
1023
1023
1022
1023
1023
1023
1023
1022
1023
448
0
0
0
0
0
0
0
0
479
997
1023
1023
1022
1023
1022
1022
1022
1023
1023
568
0
0
0
0
0
0
0
0
0
0
0
591
1022
1023
1022
1023
1022
1022
1023
0
0
0
0
0
0
0
0
0
115
652
1022
1023
1022
1023
1022
1022
1022
1023
1022
504
0
0
0
0
0
0
0
0
0
87
1023
1023
1022
1022
1023
1022
1022
1022
1023
368
0
0
0
0
0
0
0
0
0
272
1023
1023
1022
1023
1022
1023
1023
1022
1023
383
0
0
0
0
0
0
0
0
696
1023
1023
1023
1022
1023
1022
1023
1023
1022
1023
748
0
0
0
0
0
0
0
0
0
0
0
620
1022
1023
1022
1022
1022
1022
1023
0
0
0
0
0
0
0
0
0
6
547
1022
1023
1022
1023
1022
1023
1023
1022
1022
462
0
0
0
0
0
0
0
0
406
994
1023
1022
1022
1023
1022
1023
1022
1022
1023
560
0
0
0
0
0
0
0
0
271
787
1022
1022
1022
1023
1022
1022
1023
1022
1023
512
0
0
0
0
0
0
0
0
0
231
1020
1023
1022
1023
1022
1023
1023
1022
1023
598
0
0
0
0
0
0
0
0
0
0
0
398
1022
1023
1022
1023
1023
1022
1023
0
0
0
0
0
0
0
0
0
167
700
1022
1023
1022
1022
1022
1023
1022
1022
1023
604
0
0
0
0
0
0
0
0
0
0
554
1023
1022
1022
1023
1022
1023
1022
1023
265
0
0
0
0
0
0
0
0
0
105
1022
1022
1022
1023
1022
1022
1022
1022
1023
474
0
0
0
0
0
0
0
0
296
777
1023
1022
1022
1022
1022
1022
1022
1023
1023
687
0
0
0
0
0
0
0
0
0
246
1023
1023
1022
1023
1022
1023
1023
1022
1023
600
0
0
0
0
0
0
0
0
0
255
1023
1023
1022
1023
1022
1023
1023
1022
1023
459
0
0
0
0
0
0
0
0
0
109
1022
1023
1022
1023
1022
1023
1023
1022
1023
499
0
0
0
0
0
0
0
0
0
215
1022
1023
1022
1023
1023
1023
1022
1023
1023
512
0
0
0
0
0
0
0
0
0
76
1022
1022
1022
1023
1023
1022
1022
1022
1023
343
0
0
0
0
0
0
0
929
1023
1023
1023
1022
1022
1023
1022
1023
1022
1022
1023
822
0
0
0
0
0
0
0
0
491
1012
1023
1023
1022
1023
1022
1023
1023
1022
1023
569
0
0
0
0
0
0
0
0
0
413
1023
1023
1022
1023
1022
1023
1023
1022
1023
479
0
0
0
0
0
0
0
0
0
0
1022
1022
1022
1023
1022
1022
1023
1022
1023
236
0
0
0
0
0
0
0
0
458
1013
1022
1023
1022
1023
1022
1022
1023
1023
1023
388
0
0
0
0
0
0
0
944
1023
1023
1022
1022
1022
1023
1022
1023
1022
1022
1023
780
0
0
0
0
0
0
0
0
0
0
1022
1023
1022
1023
1022
1022
1023
1022
1023
267
0
0
0
0
0
0
0
0
0
354
1023
1023
1022
1023
1022
1023
1023
1022
1023
455
0
0
0
0
0
0
0
0
0
0
1022
1023
1022
1023
1022
1022
1023
1022
1023
210
0
0
0
0
0
0
0
0
0
85
1022
1023
1022
1023
1023
1023
1023
1022
1023
171
0
0
0
0
0
0
0
948
1023
1023
1023
1023
1022
1022
1023
1023
1023
1022
1023
700
0
0
0
0
0
0
0
0
739
1023
1022
1022
1022
1023
1022
1022
1022
1022
1023
481
0
0
0
0
0
0
0
0
0
0
1022
1023
1022
1023
1022
1023
1023
1022
1023
382
0
0
0
0
0
0
0
0
0
0
387
1023
1022
1023
1023
1022
1022
1022
1023
0
0
0
0
0
0
0
0
0
0
416
1023
1023
1022
1023
1023
1023
1023
1022
1023
352
0
0
0
0
0
0
0
78
1016
1023
1022
1022
1022
1023
1022
1022
1022
1022
1023
624
0
0
0
0
0
0
0
0
0
0
1022
1022
1022
1023
1022
1022
1022
1023
1023
272
0
0
0
0
0
0
0
0
0
387
1022
1022
1022
1023
1023
1023
1023
1022
1023
487
0
0
0
0
0
0
0
0
0
0
510
1022
1022
1023
1022
1023
1023
1022
1023
41
0
0
0
0
0
0
0
0
0
455
1023
1023
1022
1022
1023
1023
1023
1022
1023
468
0
0
0
0
0
0
0
0
421
944
1023
1023
1022
1023
1023
1023
1023
1023
1022
524
0
0
0
0
0
0
0
0
0
432
1023
1022
1022
1023
1023
1022
1023
1022
1023
428
0
0
0
0
0
0
0
0
0
273
1022
1022
1022
1023
1022
1023
1022
1022
1023
551
0
0
0
0
0
0
0
0
0
0
0
573
1022
1023
1022
1022
1022
1022
1022
0
0
0
0
0
0
0
0
0
0
173
1022
1023
1022
1023
1022
1023
1023
1022
1023
483
0
0
0
0
0
0
0
0
0
515
1023
1023
1022
1023
1022
1023
1023
1022
1023
542
0
0
0
0
0
0
0
0
0
442
1023
1023
1022
1022
1023
1022
1023
1022
1022
474
0
0
0
0
0
0
0
0
399
877
1022
1022
1022
1023
1022
1023
1022
1022
1023
724
0
0
0
0
0
0
0
0
0
0
0
444
1022
1023
1022
1022
1023
1022
1023
0
0
0
0
0
0
0
0
0
0
322
1023
1023
1022
1023
1023
1023
1023
1022
1023
544
0
0
0
0
0
0
0
0
0
357
1023
1023
1022
1023
1023
1023
1023
1022
1023
501
0
0
0
0
0
0
0
0
355
878
1023
1023
1022
1023
1022
1023
1023
1022
1023
638
0
0
0
0
0
0
0
0
0
364
1022
1023
1022
1023
1022
1023
1023
1022
1023
696
0
0
0
0
0
0
0
0
0
0
0
342
1022
1023
1023
1023
1022
1022
1023
0
0
0
0
0
0
0
0
0
724
1022
1022
1023
1022
1023
1023
1023
1023
1023
1022
759
0
0
0
0
0
0
0
0
0
0
518
1023
1022
1023
1023
1023
1023
1022
1023
263
0
0
0
0
0
0
0
0
0
188
1023
1023
1022
1023
1022
1023
1023
1023
1023
497
0
0
0
0
0
0
0
0
669
1022
1023
1023
1022
1023
1023
1023
1023
1022
1023
731
0
0
0
0
0
0
0
0
510
1014
1022
1023
1022
1022
1022
1022
1023
1022
1023
688
0
0
0
0
0
0
0
0
14
513
1023
1023
1022
1023
1022
1023
1023
1022
1023
521
0
0
0
0
0
0
0
0
0
91
1022
1023
1022
1023
1022
1023
1023
1022
1023
418
0
0
0
0
0
0
0
0
159
648
1022
1023
1022
1023
1023
1023
1023
1022
1022
549
0
0
0
0
0
0
0
0
79
558
1023
1023
1022
1023
1022
1023
1023
1023
1023
384
0
0
0
0
0
0
0
774
1023
1022
1023
1023
1022
1023
1023
1023
1023
1022
1023
727
0
0
0
0
0
0
0
0
404
932
1022
1023
1022
1023
1023
1022
1022
1023
1023
473
0
0
0
0
0
0
0
0
22
598
1023
1022
1022
1023
1023
1022
1022
1022
1023
467
0
0
0
0
0
0
0
0
0
107
1022
1023
1022
1023
1022
1022
1022
1023
1023
241
0
0
0
0
0
0
0
0
56
572
1022
1023
1022
1023
1022
1022
1023
1023
1023
244
0
0
0
0
0
0
0
1011
1023
1023
1023
1023
1022
1023
1022
1023
1023
1022
1023
720
0
0
0
0
0
0
0
0
0
394
1023
1023
1022
1023
1022
1023
1023
1022
1023
363
0
0
0
0
0
0
0
0
0
137
1022
1023
1022
1023
1023
1022
1023
1023
1023
362
0
0
0
0
0
0
0
0
0
76
1022
1022
1022
1023
1022
1022
1023
1022
1023
160
0
0
0
0
0
0
0
0
0
369
1022
1022
1022
1023
1023
1023
1023
1023
1023
174
0
0
0
0
0
0
0
930
1023
1022
1022
1022
1022
1023
1022
1022
1022
1022
1023
642
0
0
0
0
0
0
0
0
0
351
1023
1023
1022
1023
1023
1023
1023
1023
1022
299
0
0
0
0
0
0
0
0
190
669
1023
1023
1022
1023
1022
1023
1023
1022
1023
479
0
0
0
0
0
0
0
0
0
0
515
1022
1022
1023
1022
1022
1022
1022
1023
0
0
0
0
0
0
0
0
0
25
600
1022
1022
1023
1023
1022
1022
1023
1022
1023
323
0
0
0
0
0
0
0
176
1022
1023
1022
1022
1022
1023
1022
1022
1023
1022
1023
595
0
0
0
0
0
0
0
0
0
105
1022
1023
1022
1023
1022
1022
1023
1022
1023
248
0
0
0
0
0
0
0
0
0
334
1023
1023
1022
1023
1023
1023
1023
1023
1023
418
0
0
0
0
0
0
0
0
0
0
704
1023
1022
1023
1022
1023
1023
1022
1023
93
0
0
0
0
0
0
0
0
0
0
1022
1023
1022
1023
1022
1023
1022
1022
1023
311
0
0
0
0
0
0
0
0
0
407
1023
1023
1022
1023
1023
1022
1022
1022
1023
365
0
0
0
0
0
0
0
0
655
1022
1023
1023
1022
1023
1022
1023
1023
1022
1023
529
0
0
0
0
0
0
0
0
0
293
1022
1022
1022
1023
1023
1023
1022
1022
1023
503
0
0
0
0
0
0
0
0
0
0
0
399
1022
1023
1022
1023
1023
1023
1022
0
0
0
0
0
0
0
0
0
0
530
1022
1023
1022
1023
1022
1023
1023
1022
1023
487
0
0
0
0
0
0
0
0
0
391
1022
1023
1022
1023
1023
1022
1023
1022
1022
428
0
0
0
0
0
0
0
0
435
966
1023
1022
1022
1023
1023
1022
1023
1022
1023
516
0
0
0
0
0
0
0
0
487
979
1023
1023
1022
1023
1022
1023
1022
1023
1023
675
0
0
0
0
0
0
0
0
0
0
69
943
1022
1023
1022
1023
1023
1022
1023
20
0
0
0
0
0
0
0
0
177
694
1023
1023
1022
1023
1022
1023
1023
1023
1023
498
0
0
0
0
0
0
0
0
0
394
1022
1022
1022
1023
1023
1023
1023
1022
1023
397
0
0
0
0
0
0
0
0
523
1022
1023
1023
1022
1023
1022
1022
1022
1023
1022
527
0
0
0
0
0
0
0
0
222
688
1023
1022
1022
1023
1023
1022
1022
1022
1023
672
0
0
0
0
0
0
0
0
0
0
0
219
980
1023
1022
1022
1023
1023
1022
0
0
0
0
0
0
0
0
0
263
794
1022
1023
1022
1023
1022
1023
1023
1022
1023
562
0
0
0
0
0
0
0
0
0
0
1022
1023
1022
1023
1023
1023
1022
1022
1023
422
0
0
0
0
0
0
0
0
0
125
1023
1023
1022
1023
1022
1023
1023
1022
1022
380
0
0
0
0
0
0
0
0
303
792
1023
1022
1022
1023
1023
1023
1023
1022
1023
611
0
0
0
0
0
0
0
0
0
380
1022
1023
1022
1023
1023
1023
1023
1022
1023
528
0
0
0
0
0
0
0
0
0
392
1022
1023
1022
1023
1022
1023
1023
1022
1022
453
0
0
0
0
0
0
0
0
0
112
1022
1022
1022
1023
1023
1023
1023
1022
1023
389
0
0
0
0
0
0
0
0
241
759
1022
1023
1022
1023
1022
1023
1023
1022
1023
491
0
0
0
0
0
0
0
0
46
521
1023
1023
1022
1023
1023
1022
1023
1022
1023
374
0
0
0
0
0
0
0
888
1023
1023
1023
1023
1022
1023
1022
1022
1022
1023
1023
695
0
0
0
0
0
0
0
0
424
952
1022
1023
1022
1023
1022
1023
1022
1022
1023
425
0
0
0
0
0
0
0
0
307
895
1023
1023
1022
1023
1022
1022
1022
1023
1023
471
0
0
0
0
0
0
0
0
0
65
1023
1023
1022
1023
1022
1023
1023
1022
1023
204
0
0
0
0
0
0
0
0
0
349
1023
1023
1022
1022
1022
1023
1023
1022
1023
169
0
0
0
0
0
0
0
998
1023
1022
1022
1023
1022
1023
1023
1022
1023
1022
1023
704
0
0
0
0
0
0
0
0
0
0
1005
1023
1022
1023
1023
1022
1022
1022
1023
191
0
0
0
0
0
0
0
0
0
0
1022
1023
1022
1023
1023
1022
1023
1022
1023
291
0
0
0
0
0
0
0
0
74
584
1023
1023
1022
1023
1022
1022
1022
1022
1023
267
0
0
0
0
0
0
0
0
0
352
1023
1023
1022
1023
1022
1023
1022
1022
1023
192
0
0
0
0
0
0
0
884
1023
1022
1023
1023
1022
1023
1023
1023
1023
1023
1023
604
0
0
0
0
0
0
0
0
0
2
1022
1023
1022
1023
1022
1023
1022
1022
1023
201
0
0
0
0
0
0
0
0
0
425
1022
1022
1022
1023
1023
1023
1022
1022
1023
428
0
0
0
0
0
0
0
0
0
0
432
1023
1022
1023
1023
1022
1023
1022
1023
0
0
0
0
0
0
0
0
0
0
147
1022
1023
1022
1023
1023
1022
1023
1022
1022
257
0
0
0
0
0
0
0
495
1023
1023
1023
1023
1022
1023
1022
1023
1023
1022
1023
616
0
0
0
0
0
0
0
0
0
0
1022
1023
1022
1023
1023
1023
1023
1022
1023
235
0
0
0
0
0
0
0
0
258
736
1023
1023
1022
1023
1022
1023
1023
1022
1023
475
0
0
0
0
0
0
0
0
0
0
261
1022
1022
1023
1022
1022
1023
1023
1023
0
0
0
0
0
0
0
0
0
105
647
1023
1022
1022
1023
1023
1023
1022
1023
1022
458
0
0
0
0
0
0
0
0
0
354
1023
1022
1022
1023
1022
1023
1022
1022
1023
366
0
0
0
0
0
0
0
0
326
839
1023
1023
1022
1023
1023
1022
1023
1022
1023
413
0
0
0
0
0
0
0
0
454
909
1023
1023
1022
1023
1022
1023
1023
1022
1023
583
0
0
0
0
0
0
0
0
0
0
0
698
1022
1023
1022
1022
1023
1022
1022
0
0
0
0
0
0
0
0
0
0
16
1022
1022
1022
1023
1023
1022
1022
1022
1023
342
0
0
0
0
0
0
0
0
247
778
1022
1022
1022
1023
1023
1022
1022
1022
1023
474
0
0
0
0
0
0
0
0
391
896
1023
1023
1022
1023
1022
1023
1022
1022
1023
473
0
0
0
0
0
0
0
0
172
640
1023
1023
1022
1023
1022
1022
1023
1022
1022
539
0
0
0
0
0
0
0
0
0
0
369
1022
1022
1023
1022
1023
1023
1023
1023
145
0
0
0
0
0
0
0
0
116
627
1022
1023
1023
1023
1023
1022
1023
1022
1022
477
0
0
0
0
0
0
0
0
0
44
1022
1023
1022
1022
1023
1022
1022
1022
1023
310
0
0
0
0
0
0
0
0
459
991
1022
1023
1022
1022
1022
1022
1023
1022
1023
456
0
0
0
0
0
0
0
0
591
1022
1023
1023
1022
1022
1022
1022
1022
1023
1023
708
0
0
0
0
0
0
0
0
0
0
0
450
1022
1023
1023
1023
1022
1022
1022
0
0
0
0
0
0
0
0
0
360
899
1023
1023
1022
1023
1023
1022
1023
1022
1023
517
0
0
0
0
0
0
0
0
0
216
1022
1023
1022
1023
1022
1022
1022
1022
1023
419
0
0
0
0
0
0
0
0
0
132
1022
1022
1022
1023
1022
1022
1022
1022
1023
361
0
0
0
0
0
0
0
0
231
700
1022
1022
1022
1023
1022
1023
1022
1022
1022
540
0
0
0
0
0
0
0
0
0
477
1022
1022
1022
1023
1023
1022
1023
1022
1023
475
0
0
0
0
0
0
0
0
124
621
1022
1023
1022
1023
1022
1022
1022
1022
1023
425
0
0
0
0
0
0
0
0
0
219
1023
1023
1022
1023
1022
1023
1023
1023
1023
330
0
0
0
0
0
0
0
0
664
1022
1023
1023
1023
1023
1023
1022
1023
1022
1023
464
0
0
0
0
0
0
0
0
289
808
1023
1022
1022
1023
1023
1022
1023
1022
1023
309
0
0
0
0
0
0
0
1013
1023
1022
1022
1022
1022
1023
1022
1022
1023
1022
1022
641
0
0
0
0
0
0
0
0
159
667
1022
1023
1022
1023
1022
1023
1023
1023
1023
306
0
0
0
0
0
0
0
0
0
600
1022
1023
1022
1023
1023
1023
1023
1022
1023
294
0
0
0
0
0
0
0
0
280
797
1022
1023
1022
1023
1023
1022
1023
1023
1023
248
0
0
0
0
0
0
0
0
82
614
1023
1023
1022
1023
1022
1022
1023
1022
1023
108
0
0
0
0
0
0
0
995
1023
1023
1022
1022
1022
1023
1022
1022
1022
1023
1023
588
0
0
0
0
0
0
0
0
0
399
1023
1022
1022
1023
1022
1022
1022
1022
1022
186
0
0
0
0
0
0
0
0
315
890
1022
1022
1022
1022
1022
1022
1023
1022
1022
319
0
0
0
0
0
0
0
0
67
583
1022
1023
1022
1023
1022
1023
1022
1022
1022
118
0
0
0
0
0
0
0
0
268
864
1023
1023
1022
1022
1022
1023
1023
1023
1022
147
0
0
0
0
0
0
0
893
1023
1023
1022
1023
1022
1022
1023
1022
1023
1022
1023
471
0
0
0
0
0
0
0
0
130
655
1023
1022
1022
1023
1022
1023
1023
1022
1023
150
0
0
0
0
0
0
0
85
946
1022
1022
1023
1022
1023
1023
1023
1022
1022
1022
428
0
0
0
0
0
0
0
0
0
0
622
1022
1022
1023
1023
1023
1023
1023
1022
0
0
0
0
0
0
0
0
0
214
803
1023
1023
1022
1023
1022
1023
1023
1022
1023
152
0
0
0
0
0
0
0
841
1023
1023
1022
1022
1022
1023
1022
1023
1023
1022
1022
465
0
0
0
0
0
0
0
0
22
583
1022
1023
1022
1023
1023
1022
1022
1022
1022
37
0
0
0
0
0
0
0
0
319
860
1022
1022
1022
1022
1023
1023
1022
1022
1023
247
0
0
0
0
0
0
0
0
0
457
1022
1023
1022
1023
1022
1023
1022
1022
1022
86
0
0
0
0
0
0
0
0
566
1022
1022
1023
1022
1023
1022
1023
1023
1023
1023
263
0
0
0
0
0
0
0
0
726
1022
1022
1022
1022
1023
1023
1023
1023
1022
1023
215
0
0
0
0
0
0
0
0
711
1022
1023
1023
1022
1023
1022
1023
1023
1022
1023
227
0
0
0
0
0
0
0
0
846
1022
1022
1022
1022
1023
1023
1023
1022
1022
1022
363
0
0
0
0
0
0
0
0
0
0
575
1023
1022
1023
1023
1022
1023
1023
1022
0
0
0
0
0
0
0
0
0
134
680
1022
1023
1022
1023
1022
1023
1022
1022
1023
164
0
0
0
0
0
0
0
0
246
805
1022
1023
1022
1023
1022
1023
1022
1023
1022
191
0
0
0
0
0
0
0
0
835
1022
1023
1023
1022
1022
1022
1023
1022
1022
1022
297
0
0
0
0
0
0
0
0
568
1022
1022
1023
1022
1022
1022
1023
1022
1022
1023
380
0
0
0
0
0
0
0
0
0
0
143
1022
1022
1023
1023
1023
1022
1022
1022
0
0
0
0
0
0
0
0
0
539
1023
1022
1022
1022
1023
1023
1022
1023
1022
1023
355
0
0
0
0
0
0
0
0
0
0
781
1023
1022
1023
1022
1022
1022
1022
1022
19
0
0
0
0
0
0
0
0
0
392
1023
1023
1022
1023
1022
1023
1023
1022
1023
186
0
0
0
0
0
0
0
0
449
956
1022
1023
1022
1022
1022
1023
1022
1022
1023
523
0
0
0
0
0
0
0
0
0
0
0
775
1022
1023
1022
1022
1023
1022
1022
0
0
0
0
0
0
0
0
0
0
94
1022
1023
1022
1023
1023
1023
1023
1022
1022
247
0
0
0
0
0
0
0
0
0
0
992
1023
1022
1023
1022
1023
1023
1022
1022
209
0
0
0
0
0
0
0
0
71
564
1022
1022
1022
1023
1022
1022
1022
1022
1022
374
0
0
0
0
0
0
0
0
279
758
1023
1022
1022
1023
1022
1023
1022
1022
1022
420
0
0
0
0
0
0
0
0
212
715
1023
1023
1022
1023
1022
1022
1023
1022
1023
368
0
0
0
0
0
0
0
0
856
1023
1023
1023
1022
1023
1023
1023
1023
1023
1023
491
0
0
0
0
0
0
0
0
0
31
1022
1022
1022
1023
1022
1023
1023
1022
1022
219
0
0
0
0
0
0
0
0
351
876
1023
1022
1022
1022
1022
1022
1023
1022
1023
334
0
0
0
0
0
0
0
0
189
688
1023
1023
1022
1023
1023
1023
1022
1023
1022
190
0
0
0
0
0
0
0
978
1023
1022
1023
1023
1022
1022
1022
1023
1023
1022
1023
572
0
0
0
0
0
0
0
0
224
751
1023
1023
1022
1023
1023
1022
1023
1022
1023
216
0
0
0
0
0
0
0
0
384
979
1023
1023
1022
1023
1022
1022
1022
1022
1023
349
0
0
0
0
0
0
0
0
0
31
1022
1022
1023
1023
1022
1023
1022
1022
1022
83
0
0
0
0
0
0
0
0
0
409
1022
1022
1022
1023
1022
1023
1023
1023
1023
57
0
0
0
0
0
0
0
984
1022
1022
1022
1023
1022
1023
1022
1022
1022
1022
1022
554
0
0
0
0
0
0
0
0
0
68
1022
1022
1022
1023
1022
1023
1023
1022
1023
128
0
0
0
0
0
0
0
0
0
248
1023
1023
1022
1023
1023
1022
1022
1022
1022
245
0
0
0
0
0
0
0
0
0
536
1023
1023
1022
1023
1022
1023
1023
1023
1023
97
0
0
0
0
0
0
0
0
200
788
1022
1023
1022
1023
1023
1023
1023
1022
1022
151
0
0
0
0
0
0
0
890
1023
1023
1023
1023
1022
1023
1022
1023
1023
1022
1022
460
0
0
0
0
0
0
0
0
0
335
1022
1023
1022
1022
1023
1022
1022
1022
1022
133
0
0
0
0
0
0
0
0
192
688
1023
1023
1022
1022
1022
1022
1023
1022
1023
306
0
0
0
0
0
0
0
0
0
0
888
1023
1022
1023
1022
1022
1023
1022
1022
0
0
0
0
0
0
0
0
0
701
1022
1022
1022
1022
1022
1023
1023
1022
1022
1022
216
0
0
0
0
0
0
0
871
1022
1022
1023
1023
1022
1023
1023
1022
1022
1022
1023
368
0
0
0
0
0
0
0
520
1022
1022
1023
1023
1022
1023
1023
1022
1022
1022
1022
313
0
0
0
0
0
0
0
0
540
1021
1023
1022
1022
1023
1023
1022
1023
1022
1022
211
0
0
0
0
0
0
0
0
0
0
986
1022
1022
1023
1023
1023
1023
1022
1022
0
0
0
0
0
0
0
0
0
733
1022
1022
1023
1022
1023
1022
1022
1023
1022
1022
240
0
0
0
0
0
0
0
0
353
899
1023
1023
1022
1023
1023
1023
1023
1022
1023
131
0
0
0
0
0
0
0
0
491
1022
1023
1023
1022
1023
1022
1023
1022
1022
1023
119
0
0
0
0
0
0
0
123
982
1022
1023
1023
1022
1022
1022
1022
1023
1023
1023
382
0
0
0
0
0
0
0
0
0
0
0
877
1022
1023
1023
1023
1023
1022
1022
0
0
0
0
0
0
0
0
0
0
395
1023
1022
1022
1022
1023
1023
1023
1022
1023
127
0
0
0
0
0
0
0
0
315
885
1023
1023
1022
1023
1022
1023
1023
1022
1023
205
0
0
0
0
0
0
0
0
460
1016
1022
1023
1022
1022
1023
1023
1023
1022
1023
216
0
0
0
0
0
0
0
0
252
741
1023
1023
1022
1022
1022
1023
1022
1022
1023
375
0
0
0
0
0
0
0
0
0
0
154
1021
1022
1022
1023
1023
1022
1022
1022
0
0
0
0
0
0
0
0
505
1022
1022
1023
1022
1022
1023
1022
1022
1022
1022
1022
401
0
0
0
0
0
0
0
0
48
615
1023
1023
1022
1023
1022
1023
1023
1023
1022
135
0
0
0
0
0
0
0
209
1022
1023
1023
1022
1022
1023
1023
1023
1022
1022
1022
193
0
0
0
0
0
0
0
920
1023
1023
1023
1023
1022
1023
1023
1023
1023
1022
1022
449
0
0
0
0
0
0
0
0
0
474
1022
1022
1022
1022
1023
1023
1023
1022
1022
0
0
0
0
0
0
0
99
1022
1022
1023
1023
1023
1022
1023
1023
1022
1023
1023
1022
282
0
0
0
0
0
0
0
508
1022
1022
1023
1022
1022
1023
1022
1023
1023
1022
1022
179
0
0
0
0
0
0
0
0
721
1023
1023
1022
1022
1023
1022
1023
1023
1023
1022
37
0
0
0
0
0
0
0
0
667
1022
1022
1022
1022
1023
1022
1023
1022
1022
1022
73
0
0
0
0
0
0
0
0
939
1023
1023
1023
1022
1022
1022
1023
1022
1022
1023
155
0
0
0
0
0
0
0
0
470
1016
1023
1023
1022
1022
1023
1023
1023
1022
1022
63
0
0
0
0
0
0
0
0
502
1022
1023
1022
1022
1022
1023
1023
1023
1022
1023
13
0
0
0
0
0
0
0
383
1022
1023
1023
1023
1022
1023
1022
1023
1023
1022
1023
104
0
0
0
0
0
0
0
552
1023
1022
1023
1023
1022
1023
1022
1022
1023
1023
1022
3
0
0
0
0
0
0
0
1022
1022
1022
1022
1023
1022
1022
1022
1023
1023
1022
1022
204
0
0
0
0
0
0
0
576
1022
1022
1023
1023
1022
1022
1022
1023
1023
1023
1023
22
0
0
0
0
0
0
0
453
1022
1023
1023
1023
1022
1023
1023
1023
1022
1022
1022
120
0
0
0
0
0
0
0
0
437
1014
1023
1022
1023
1022
1022
1023
1023
1022
1022
0
0
0
0
0
0
0
0
0
912
1022
1022
1023
1022
1023
1023
1022
1022
1022
1022
0
0
0
0
0
0
0
0
1018
1023
1022
1023
1022
1022
1023
1023
1023
1022
1022
1023
200
0
0
0
0
0
0
0
184
1022
1022
1023
1023
1022
1022
1023
1023
1022
1022
1022
43
0
0
0
0
0
0
0
0
497
1021
1022
1023
1022
1023
1023
1023
1023
1022
1022
16
0
0
0
0
0
0
0
0
217
782
1023
1023
1022
1023
1022
1022
1022
1022
1022
0
0
0
0
0
0
0
0
0
814
1023
1023
1022
1022
1022
1023
1023
1022
1022
1022
39
0
0
0
0
0
0
0
752
1023
1022
1022
1023
1022
1023
1022
1022
1023
1022
1022
213
0
0
0
0
0
0
0
0
0
464
1023
1023
1022
1023
1022
1023
1022
1022
1023
0
0
0
0
0
0
0
0
0
828
1022
1023
1023
1022
1023
1023
1023
1023
1022
1022
193
0
0
0
0
0
0
0
0
0
0
585
1023
1022
1022
1022
1023
1023
1022
1022
0
0
0
0
0
0
0
0
0
0
526
1022
1023
1022
1023
1023
1022
1023
1022
1022
31
0
0
0
0
0
0
0
635
1023
1022
1023
1022
1022
1022
1022
1023
1023
1022
1023
277
0
0
0
0
0
0
0
0
337
866
1023
1022
1022
1023
1023
1023
1023
1022
1022
133
0
0
0
0
0
0
0
0
0
447
1022
1022
1022
1023
1022
1022
1022
1022
1022
173
0
0
0
0
0
0
0
0
0
0
794
1023
1022
1023
1022
1022
1023
1022
1022
0
0
0
0
0
0
0
0
0
0
442
1023
1022
1022
1022
1022
1023
1023
1022
1022
146
0
0
0
0
0
0
0
0
266
805
1022
1022
1022
1023
1022
1022
1023
1022
1022
201
0
0
0
0
0
0
0
0
0
311
1022
1023
1022
1023
1023
1022
1023
1023
1023
137
0
0
0
0
0
0
0
0
0
197
1022
1023
1022
1022
1023
1022
1023
1022
1023
276
0
0
0
0
0
0
0
0
0
0
0
0
0
211
253
1022
1023
1022
509
0
0
0
0
0
0
0
0
0
0
0
792
1022
1022
1023
1023
1023
1023
1022
1022
189
0
0
0
0
0
0
0
0
0
0
732
1022
1022
1022
1023
1023
1023
1022
1022
168
0
0
0
0
0
0
0
0
0
144
1023
1023
1022
1023
1022
1022
1023
1022
1022
414
0
0
0
0
0
0
0
0
0
244
1022
1023
1022
1023
1023
1023
1022
1022
1023
602
0
0
0
0
0
0
0
0
0
0
0
0
0
113
120
1022
1022
1022
720
0
0
0
0
0
0
0
0
0
0
158
1023
1022
1022
1022
1022
1023
1022
1022
1022
555
0
0
0
0
0
0
0
0
0
0
0
459
1022
1023
1022
1023
1023
1022
1022
97
0
0
0
0
0
0
0
0
0
0
352
1022
1022
1022
1022
1022
1022
1023
1022
300
0
0
0
0
0
0
0
0
300
738
1023
1023
1022
1023
1022
1022
1023
1022
1022
939
0
0
0
0
0
0
0
0
0
0
0
788
1022
1023
1023
1023
1023
1022
1022
316
0
0
0
0
0
0
0
0
0
451
1022
1022
1022
1023
1022
1022
1022
1022
1023
735
0
0
0
0
0
0
0
0
78
562
1023
1023
1022
1022
1022
1022
1023
1022
1023
765
0
0
0
0
0
0
0
0
597
1022
1023
1023
1022
1023
1023
1023
1023
1022
1022
708
0
0
0
0
0
0
0
509
1022
1023
1023
1022
1022
1022
1022
1022
1023
1023
1022
700
0
0
0
0
0
0
157
1022
1022
1022
1022
1023
1022
1023
1023
1023
1023
1022
1023
745
0
0
0
0
0
0
267
1022
1023
1023
1023
1023
1022
1023
1023
1022
1023
1022
1022
675
0
0
0
0
0
0
0
1016
1022
1022
1023
1022
1022
1023
1022
1022
1022
1022
1023
486
0
0
0
0
0
0
0
846
1023
1023
1022
1022
1022
1022
1022
1023
1023
1023
1023
340
0
0
0
0
0
0
0
843
1022
1022
1022
1023
1023
1023
1022
1022
1023
1022
1022
218
0
0
0
0
0
0
115
1022
1022
1023
1023
1023
1022
1022
1023
1023
1022
1022
1022
389
0
0
0
0
0
0
0
540
1023
1023
1023
1023
1022
1022
1023
1022
1023
1022
1022
135
0
0
0
0
0
0
0
703
1022
1023
1023
1023
1022
1022
1023
1022
1023
1023
1023
222
0
0
0
0
0
0
0
0
663
1022
1022
1023
1023
1023
1022
1022
1023
1022
1022
5
0
0
0
0
0
0
0
0
61
621
1022
1023
1022
1022
1023
1022
1023
1022
1022
0
0
0
0
0
0
0
0
905
1022
1022
1023
1023
1022
1023
1022
1022
1023
1022
1023
273
0
0
0
0
0
0
0
0
880
1023
1023
1022
1022
1023
1022
1022
1023
1023
1022
100
0
0
0
0
0
0
0
0
249
773
1022
1023
1022
1023
1022
1022
1023
1022
1022
111
0
0
0
0
0
0
0
0
0
187
1023
1023
1022
1023
1022
1022
1023
1023
1022
0
0
0
0
0
0
0
0
0
0
535
1023
1023
1022
1023
1023
1022
1022
1022
1023
0
0
0
0
0
0
0
0
883
1023
1022
1022
1023
1022
1022
1022
1022
1023
1023
1022
363
0
0
0
0
0
0
0
0
266
807
1022
1023
1022
1023
1022
1022
1023
1022
1022
84
0
0
0
0
0
0
0
0
219
705
1023
1022
1022
1023
1022
1022
1023
1022
1022
155
0
0
0
0
0
0
0
0
0
0
1022
1023
1022
1023
1022
1023
1022
1022
1022
0
0
0
0
0
0
0
0
0
0
223
1023
1023
1022
1022
1022
1023
1023
1022
1022
76
0
0
0
0
0
0
0
0
637
1022
1022
1022
1022
1023
1022
1023
1022
1022
1022
277
0
0
0
0
0
0
0
0
415
940
1022
1022
1022
1022
1022
1022
1023
1022
1022
224
0
0
0
0
0
0
0
0
305
778
1023
1023
1022
1023
1023
1023
1022
1022
1022
347
0
0
0
0
0
0
0
0
0
0
117
1022
1022
1022
1022
1022
1023
1022
1022
0
0
0
0
0
0
0
0
0
133
671
1022
1023
1022
1023
1023
1023
1023
1022
1022
293
0
0
0
0
0
0
0
0
560
1022
1023
1023
1022
1022
1022
1023
1022
1023
1022
387
0
0
0
0
0
0
0
0
0
0
1022
1022
1022
1023
1022
1022
1023
1022
1022
145
0
0
0
0
0
0
0
0
480
974
1023
1022
1022
1022
1022
1022
1023
1023
1022
240
0
0
0
0
0
0
0
241
1022
1022
1022
1022
1023
1022
1022
1022
1023
1022
1023
391
0
0
0
0
0
0
0
0
536
1022
1023
1023
1022
1023
1023
1022
1023
1023
1023
262
0
0
0
0
0
0
0
0
70
592
1022
1023
1022
1023
1023
1023
1022
1022
1022
107
0
0
0
0
0
0
0
445
1022
1023
1022
1022
1022
1022
1023
1023
1022
1022
1023
352
0
0
0
0
0
0
0
134
973
1022
1022
1022
1022
1023
1023
1022
1022
1022
1022
404
0
0
0
0
0
0
0
0
0
0
515
1023
1022
1023
1022
1022
1022
1023
1022
0
0
0
0
0
0
0
0
415
1022
1022
1023
1022
1022
1023
1022
1023
1022
1022
1022
317
0
0
0
0
0
0
0
0
530
1022
1022
1023
1022
1022
1022
1022
1023
1022
1022
164
0
0
0
0
0
0
0
90
977
1022
1023
1023
1022
1023
1022
1022
1022
1022
1022
174
0
0
0
0
0
0
0
656
1022
1023
1023
1023
1022
1023
1022
1023
1022
1022
1023
447
0
0
0
0
0
0
0
0
0
0
711
1022
1022
1023
1022
1022
1022
1022
1022
39
0
0
0
0
0
0
0
0
152
674
1022
1023
1022
1023
1022
1022
1022
1022
1023
194
0
0
0
0
0
0
0
0
0
0
769
1022
1022
1023
1023
1022
1023
1022
1023
8
0
0
0
0
0
0
0
0
0
360
1022
1023
1023
1022
1022
1023
1023
1022
1022
173
0
0
0
0
0
0
0
0
123
606
1022
1023
1022
1023
1023
1022
1022
1022
1022
408
0
0
0
0
0
0
0
0
0
0
494
1022
1022
1023
1023
1022
1023
1022
1022
79
0
0
0
0
0
0
0
0
204
702
1023
1022
1022
1023
1022
1023
1022
1022
1022
389
0
0
0
0
0
0
0
0
0
0
299
1022
1022
1022
1022
1022
1022
1023
1022
88
0
0
0
0
0
0
0
0
0
44
1022
1022
1022
1023
1022
1023
1022
1022
1022
313
0
0
0
0
0
0
0
0
0
48
1014
1023
1022
1022
1023
1023
1023
1023
1022
204
0
0
0
0
0
0
0
962
1022
1022
1022
1023
1023
1023
1023
1023
1023
1022
1023
722
0
0
0
0
0
0
0
0
0
225
1022
1022
1022
1022
1022
1022
1023
1022
1023
330
0
0
0
0
0
0
0
0
0
336
1022
1022
1022
1022
1022
1022
1023
1022
1022
305
0
0
0
0
0
0
0
0
667
1022
1023
1023
1023
1022
1023
1023
1023
1023
1022
438
0
0
0
0
0
0
0
0
0
0
1023
1023
1022
1023
1023
1023
1022
1022
1022
109
0
0
0
0
0
0
0
893
1022
1022
1023
1023
1022
1023
1023
1023
1023
1022
1022
637
0
0
0
0
0
0
0
0
267
782
1023
1023
1022
1023
1022
1023
1023
1023
1023
379
0
0
0
0
0
0
0
0
0
266
1022
1023
1022
1023
1023
1022
1023
1022
1023
363
0
0
0
0
0
0
0
75
1022
1023
1022
1023
1022
1023
1022
1022
1022
1022
1022
433
0
0
0
0
0
0
0
139
1022
1022
1022
1023
1022
1022
1022
1022
1022
1022
1023
292
0
0
0
0
0
0
23
1022
1022
1023
1023
1023
1022
1023
1022
1022
1023
1022
1022
583
0
0
0
0
0
0
0
0
0
287
1022
1023
1022
1023
1022
1022
1023
1022
1023
213
0
0
0
0
0
0
0
0
191
728
1023
1023
1022
1023
1022
1022
1023
1022
1023
445
0
0
0
0
0
0
0
0
206
778
1022
1023
1022
1022
1023
1022
1022
1022
1023
241
0
0
0
0
0
0
0
0
766
1022
1022
1023
1022
1023
1023
1022
1022
1022
1023
319
0
0
0
0
0
0
0
1013
1023
1023
1023
1022
1022
1022
1022
1023
1023
1022
1022
526
0
0
0
0
0
0
0
497
1022
1023
1022
1023
1022
1023
1022
1022
1023
1022
1022
475
0
0
0
0
0
0
0
411
1023
1022
1022
1023
1022
1023
1023
1023
1023
1022
1022
518
0
0
0
0
0
0
0
159
1022
1022
1022
1023
1023
1023
1023
1023
1023
1022
1022
376
0
0
0
0
0
0
0
0
0
0
689
1022
1022
1023
1022
1022
1023
1022
1022
115
0
0
0
0
0
0
0
0
0
0
737
1023
1022
1023
1022
1022
1022
1022
1022
220
0
0
0
0
0
0
0
0
0
0
889
1023
1022
1022
1022
1022
1023
1022
1022
268
0
0
0
0
0
0
0
0
0
0
693
1023
1022
1023
1022
1022
1023
1022
1022
352
0
0
0
0
0
0
0
0
0
0
0
792
1022
1022
1023
1023
1022
1022
1022
3
0
0
0
0
0
0
0
0
0
0
718
1023
1022
1022
1023
1022
1023
1022
1023
397
0
0
0
0
0
0
0
0
0
0
1018
1023
1022
1022
1022
1022
1022
1022
1023
493
0
0
0
0
0
0
0
0
0
137
1022
1022
1022
1023
1022
1022
1022
1022
1022
579
0
0
0
0
0
0
0
0
0
0
737
1022
1022
1023
1022
1022
1023
1023
1022
728
0
0
0
0
0
0
0
0
0
0
0
0
371
981
922
1022
1023
1022
1022
0
0
0
0
0
0
0
0
0
0
0
1023
1023
1022
1022
1022
1022
1023
1022
1022
700
0
0
0
0
0
0
0
0
0
0
964
1023
1022
1023
1023
1022
1023
1022
1022
706
0
0
0
0
0
0
0
0
0
0
705
1022
1022
1022
1022
1022
1023
1022
1023
619
0
0
0
0
0
0
0
0
0
0
776
1022
1022
1023
1023
1022
1023
1022
1022
928
0
0
0
0
0
0
0
0
0
0
0
0
592
1022
1022
1023
1022
1023
1022
120
0
0
0
0
0
0
0
0
0
40
1023
1023
1022
1023
1023
1023
1023
1022
1023
888
0
0
0
0
0
0
0
0
0
0
800
1023
1022
1023
1022
1022
1023
1023
1023
728
0
0
0
0
0
0
0
0
0
484
1022
1023
1022
1023
1023
1023
1022
1022
1022
939
0
0
0
0
0
0
0
0
198
637
1022
1022
1022
1023
1023
1022
1022
1022
1022
1022
0
0
0
0
0
0
0
0
0
0
0
0
415
1018
942
1022
1023
1022
1022
95
0
0
0
0
0
0
0
0
476
1005
1023
1023
1022
1023
1022
1023
1022
1022
1022
1022
0
0
0
0
0
0
0
0
0
500
1023
1023
1022
1022
1022
1022
1023
1022
1022
986
0
0
0
0
0
0
0
0
325
811
1023
1023
1022
1022
1023
1023
1022
1022
1022
899
0
0
0
0
0
0
0
0
782
1022
1022
1023
1022
1022
1022
1022
1022
1022
1022
1022
0
0
0
0
0
0
0
0
0
281
1022
1023
1022
1022
1022
1022
1023
1023
1022
893
0
0
0
0
0
0
0
0
310
826
1022
1022
1022
1023
1023
1022
1023
1022
1022
897
0
0
0
0
0
0
0
0
0
0
1020
1022
1022
1022
1022
1023
1023
1022
1022
722
0
0
0
0
0
0
0
0
109
612
1023
1023
1022
1022
1023
1023
1023
1022
1023
839
0
0
0
0
0
0
0
0
0
440
1023
1022
1022
1022
1023
1023
1023
1022
1022
745
0
0
0
0
0
0
0
555
1023
1023
1022
1022
1022
1022
1022
1022
1023
1022
1023
1022
0
0
0
0
0
0
0
0
152
660
1022
1022
1022
1022
1023
1022
1023
1022
1022
813
0
0
0
0
0
0
0
0
0
148
1022
1022
1022
1023
1022
1022
1023
1022
1022
791
0
0
0
0
0
0
0
0
0
0
659
1023
1022
1022
1023
1023
1023
1022
1022
608
0
0
0
0
0
0
0
0
0
0
656
1023
1023
1022
1023
1023
1023
1022
1022
439
0
0
0
0
0
0
0
883
1023
1023
1023
1023
1022
1022
1022
1022
1023
1022
1023
1022
0
0
0
0
0
0
0
0
0
291
1022
1023
1022
1023
1023
1022
1023
1022
1023
732
0
0
0
0
0
0
0
0
0
167
1022
1023
1022
1023
1022
1022
1022
1022
1023
757
0
0
0
0
0
0
0
0
0
37
1022
1023
1022
1022
1022
1022
1022
1022
1023
561
0
0
0
0
0
0
0
0
0
313
1023
1022
1022
1022
1022
1023
1022
1022
1022
569
0
0
0
0
0
0
0
801
1022
1022
1022
1023
1022
1023
1022
1022
1022
1022
1022
1022
0
0
0
0
0
0
0
0
0
0
980
1023
1022
1023
1022
1023
1022
1022
1023
644
0
0
0
0
0
0
0
0
0
0
716
1022
1022
1023
1023
1022
1022
1022
1022
779
0
0
0
0
0
0
0
0
0
0
0
797
1022
1022
1022
1022
1022
1022
1022
181
0
0
0
0
0
0
0
0
0
0
794
1023
1022
1022
1022
1022
1023
1022
1022
551
0
0
0
0
0
0
0
799
1022
1023
1022
1022
1022
1022
1022
1022
1023
1022
1022
1022
0
0
0
0
0
0
0
0
0
0
283
1022
1022
1023
1022
1023
1023
1022
1022
548
0
0
0
0
0
0
0
0
0
0
728
1022
1022
1023
1022
1023
1023
1022
1022
864
0
0
0
0
0
0
0
0
0
0
0
781
1022
1023
1022
1022
1022
1022
1022
342
0
0
0
0
0
0
0
0
0
0
381
1022
1022
1022
1022
1022
1023
1022
1022
780
0
0
0
0
0
0
0
0
0
47
1022
1023
1023
1023
1023
1022
1022
1022
1022
1018
0
0
0
0
0
0
0
0
0
254
1023
1022
1022
1022
1022
1023
1023
1022
1022
1022
0
0
0
0
0
0
0
0
0
0
557
1023
1022
1023
1023
1023
1022
1022
1023
1022
0
0
0
0
0
0
0
0
0
0
0
0
780
1022
1022
1022
1023
1023
1022
228
0
0
0
0
0
0
0
0
0
38
1022
1023
1022
1023
1022
1022
1023
1022
1022
1022
0
0
0
0
0
0
0
0
0
41
1019
1022
1022
1022
1023
1022
1022
1022
1022
1022
0
0
0
0
0
0
0
0
0
0
454
1023
1023
1023
1023
1022
1023
1022
1022
962
0
0
0
0
0
0
0
0
0
206
951
1023
1022
1022
1022
1022
1023
1022
1023
1022
0
0
0
0
0
0
0
0
0
0
0
183
969
1023
1022
1022
1023
1022
1022
468
0
0
0
0
0
0
0
0
0
0
614
1023
1022
1023
1023
1022
1023
1023
1023
1022
0
0
0
0
0
0
0
0
0
0
254
1023
1023
1022
1022
1022
1022
1022
1023
915
0
0
0
0
0
0
0
0
0
0
842
1023
1022
1022
1023
1022
1022
1022
1023
1022
0
0
0
0
0
0
0
0
0
0
315
1022
1022
1023
1023
1022
1023
1022
1022
1022
0
0
0
0
0
0
0
0
0
0
0
0
0
325
260
1023
1023
1022
1022
263
0
0
0
0
0
0
0
0
0
0
511
1023
1023
1023
1023
1022
1023
1022
1022
1022
0
0
0
0
0
0
0
0
0
0
752
1023
1022
1023
1022
1023
1022
1022
1022
1022
0
0
0
0
0
0
0
0
0
0
0
1022
1022
1023
1022
1022
1022
1022
1022
1022
0
0
0
0
0
0
0
0
0
0
0
1022
1022
1023
1022
1022
1022
1022
1022
1022
2
0
0
0
0
0
0
0
0
0
0
0
700
1023
1023
1023
1022
1022
1022
776
0
0
0
0
0
0
0
0
0
52
1002
1023
1022
1022
1022
1022
1022
1022
1022
1022
44
0
0
0
0
0
0
0
0
0
0
1022
1022
1023
1022
1023
1023
1022
1022
1022
0
0
0
0
0
0
0
0
0
303
1022
1023
1022
1023
1023
1022
1023
1022
1022
1023
49
0
0
0
0
0
0
0
240
755
1022
1023
1022
1023
1023
1022
1023
1023
1022
1022
223
0
0
0
0
0
0
0
0
0
0
682
1022
1022
1022
1022
1023
1022
1022
984
0
0
0
0
0
0
0
0
106
667
1022
1022
1022
1023
1023
1022
1022
1022
1022
1022
72
0
0
0
0
0
0
0
0
0
674
1023
1022
1023
1022
1022
1022
1022
1023
1022
0
0
0
0
0
0
0
0
0
0
732
1023
1023
1023
1022
1023
1022
1022
1022
1022
0
0
0
0
0
0
0
0
0
202
1021
1023
1022
1022
1023
1022
1023
1022
1023
1022
0
0
0
0
0
0
0
509
1022
1022
1022
1022
1022
1023
1022
1022
1023
1022
1022
1022
198
0
0
0
0
0
0
0
0
0
739
1023
1022
1023
1023
1023
1022
1022
1022
1022
0
0
0
0
0
0
0
0
0
0
596
1023
1022
1023
1023
1023
1023
1022
1022
1022
0
0
0
0
0
0
0
0
0
42
929
1022
1022
1023
1022
1022
1023
1023
1022
1022
0
0
0
0
0
0
0
0
0
0
713
1023
1022
1022
1023
1022
1022
1022
1022
1022
0
0
0
0
0
0
0
1008
1022
1023
1023
1023
1022
1022
1022
1022
1023
1023
1023
1023
135
0
0
0
0
0
0
0
0
468
1022
1023
1022
1023
1022
1022
1023
1022
1022
1022
0
0
0
0
0
0
0
0
0
358
1022
1022
1022
1023
1022
1022
1023
1022
1022
1022
0
0
0
0
0
0
0
0
0
0
737
1022
1023
1022
1022
1022
1023
1022
1022
903
0
0
0
0
0
0
0
0
425
1022
1023
1022
1022
1022
1022
1022
1023
1022
1023
1022
0
0
0
0
0
0
0
1022
1022
1023
1022
1022
1022
1023
1023
1023
1023
1022
1022
1023
0
0
0
0
0
0
0
0
0
547
1022
1022
1022
1023
1022
1022
1022
1023
1023
1022
0
0
0
0
0
0
0
0
0
319
1022
1022
1023
1023
1023
1022
1022
1022
1022
1022
0
0
0
0
0
0
0
0
0
0
641
1023
1022
1023
1022
1022
1023
1022
1022
778
0
0
0
0
0
0
0
0
0
265
1022
1023
1022
1023
1022
1023
1023
1022
1023
987
0
0
0
0
0
0
0
665
1023
1022
1023
1023
1022
1023
1023
1023
1023
1022
1022
1023
0
0
0
0
0
0
0
0
0
536
1022
1023
1023
1023
1023
1022
1022
1022
1023
1021
0
0
0
0
0
0
0
0
0
0
558
1022
1022
1023
1022
1022
1023
1022
1023
1022
0
0
0
0
0
0
0
0
0
0
0
310
1022
1023
1022
1022
1022
1022
1022
318
0
0
0
0
0
0
0
0
0
0
788
1023
1022
1023
1022
1022
1023
1022
1022
952
0
0
0
0
0
0
0
0
0
661
1023
1022
1022
1022
1022
1023
1023
1022
1022
1022
0
0
0
0
0
0
0
0
0
0
340
1023
1022
1022
1023
1022
1022
1022
1022
882
0
0
0
0
0
0
0
0
0
0
326
1023
1022
1023
1022
1022
1023
1022
1022
1022
0
0
0
0
0
0
0
0
0
0
0
849
1022
1022
1023
1022
1023
1022
1023
749
0
0
0
0
0
0
0
0
0
0
628
1023
1022
1023
1022
1022
1023
1022
1022
1022
0
0
0
0
0
0
0
0
0
415
1022
1022
1022
1023
1022
1022
1023
1022
1023
1022
0
0
0
0
0
0
0
0
0
267
1021
1022
1022
1022
1022
1022
1023
1022
1022
1022
0
0
0
0
0
0
0
0
0
430
980
1022
1022
1023
1022
1022
1023
1023
1022
1022
0
0
0
0
0
0
0
0
0
0
0
0
0
690
704
1022
1022
1022
1022
133
0
0
0
0
0
0
0
0
0
264
1022
1023
1022
1023
1023
1022
1022
1022
1022
1022
0
0
0
0
0
0
0
0
0
138
927
1023
1022
