1022
1023
1022
1022
850
807
784
755
787
824
838
551
0
0
0
0
0
0
92
682
1022
1023
1023
953
768
727
742
727
755
773
788
456
0
0
0
0
0
0
98
687
1022
1022
1022
966
796
717
726
730
792
871
915
596
0
0
0
0
0
0
358
935
1022
1022
1023
1022
823
644
588
596
655
728
781
508
0
0
0
0
0
0
404
904
1022
1022
1022
1022
1021
940
890
868
881
892
906
610
0
0
0
0
0
0
345
908
1022
1023
1023
833
699
711
705
774
920
972
948
595
0
0
0
0
0
0
259
894
1022
1023
1023
1023
1022
946
869
852
935
992
1022
753
155
0
0
0
0
0
361
876
1022
1022
1022
1022
960
853
720
558
559
632
702
445
0
0
0
0
0
0
182
756
1023
1022
1022
1022
938
878
864
807
850
880
865
562
0
0
0
0
0
0
228
748
1022
1022
1022
885
676
568
527
502
496
556
638
410
0
0
0
0
0
0
67
571
1021
1022
905
704
552
493
488
496
508
538
578
301
0
0
0
0
0
0
0
419
898
1022
743
549
429
368
340
329
369
354
394
141
0
0
0
0
0
0
0
165
595
706
458
240
80
0
0
0
0
0
0
0
0
0
0
0
0
0
0
0
0
0
0
0
0
0
0
163
408
345
321
188
0
0
0
0
0
0
350
875
1022
1023
1023
1022
1022
1022
1022
1023
1022
1022
1022
1023
1023
895
855
1005
1022
1023
1022
1022
1022
1023
1023
1023
1022
1022
1022
1022
1022
1022
1022
1022
1023
1022
1022
1022
1022
1023
1023
1022
1022
1023
1022
1022
1022
1022
1022
1022
1022
668
0
0
0
0
0
0
0
0
0
0
0
0
0
0
0
0
0
785
1022
1022
1022
1022
1022
1022
913
984
1022
1023
1022
1022
1022
1022
1023
1022
1022
1022
1023
1022
1022
1022
1022
1022
1022
1022
1022
1022
1022
1022
1022
1022
1022
1022
1022
991
800
656
535
526
598
671
745
689
523
411
375
388
464
558
681
706
673
472
160
0
0
0
0
0
0
0
0
0
0
0
0
0
0
0
0
0
0
0
0
0
0
0
0
0
0
0
0
0
0
0
0
0
0
0
0
0
0
0
0
0
0
0
0
0
0
0
0
0
0
0
0
0
0
0
0
0
126
137
109
107
118
156
185
190
196
216
216
112
0
0
0
0
0
79
262
394
464
387
331
355
369
353
311
296
313
406
472
380
204
97
30
0
60
135
246
361
467
473
368
355
345
333
332
331
328
333
377
326
196
84
3
0
0
49
148
260
382
399
284
273
278
277
287
306
339
323
360
288
119
7
0
0
0
0
111
211
310
303
207
131
124
134
147
158
181
172
192
137
0
0
0
0
0
0
31
144
248
263
191
107
96
112
103
99
114
123
100
38
0
0
0
0
0
0
99
233
354
376
319
284
273
312
347
377
421
454
453
396
288
207
163
173
211
221
343
471
561
561
474
424
364
371
408
411
442
467
482
384
260
193
154
167
203
263
339
472
587
581
504
457
417
424
471
500
537
559
578
481
380
352
331
354
396
450
508
640
764
781
729
757
825
800
817
837
853
871
878
803
627
560
519
523
553
593
667
729
828
822
722
663
617
566
550
568
576
576
576
480
283
197
159
150
169
203
280
319
412
418
326
264
225
211
179
205
251
277
295
225
87
0
0
0
0
44
140
224
314
357
299
270
265
269
260
293
357
395
427
363
225
99
84
133
177
248
365
480
548
576
521
478
456
458
477
451
511
557
592
520
396
319
259
306
360
423
537
653
733
738
682
632
602
600
611
581
639
696
731
665
534
455
378
417
504
582
718
867
991
972
906
871
829
802
798
794
792
833
837
731
551
428
348
337
412
473
563
659
737
705
614
580
535
501
473
455
425
457
491
396
216
91
12
0
37
135
259
390
524
562
487
488
496
496
485
475
499
519
596
541
375
261
158
97
107
188
318
461
584
609
499
469
477
488
507
523
538
497
541
508
369
286
256
280
288
373
529
664
781
796
707
620
609
615
624
635
655
671
664
598
447
341
282
286
309
374
516
644
767
778
688
593
584
607
617
625
648
674
652
626
521
452
416
441
496
527
648
770
866
866
755
671
603
646
682
676
684
704
705
597
451
334
261
259
287
290
384
523
636
646
565
520
455
481
496
494
517
544
568
455
316
238
190
202
253
328
417
559
702
742
691
657
636
608
629
653
681
709
721
639
485
427
393
399
443
502
575
705
830
838
770
734
714
668
699
721
747
771
793
726
558
498
478
487
529
574
675
748
864
869
781
722
686
675
656
690
730
756
780
713
546
459
439
449
489
541
638
701
802
829
739
684
650
633
588
610
658
678
701
624
487
371
344
369
406
453
546
640
701
728
651
607
585
584
583
581
636
670
694
636
490
373
332
370
407
455
547
642
687
712
647
598
571
576
583
553
604
651
671
602
466
382
304
336
386
434
531
629
722
682
624
580
555
552
556
542
560
601
619
548
409
318
234
261
323
370
462
558
637
594
521
496
465
465
463
467
454
487
519
447
303
212
161
143
207
262
359
456
546
543
442
420
408
407
418
428
432
459
509
446
304
228
189
173
242
323
425
534
625
638
518
497
496
497
503
515
540
527
568
518
380
294
249
261
269
344
449
549
650
653
560
501
503
512
524
539
568
558
593
555
423
342
303
313
311
387
516
631
740
744
681
612
609
619
631
665
723
768
777
754
617
508
428
404
423
435
552
656
739
732
633
554
517
535
542
551
583
602
585
532
414
331
292
303
345
353
475
601
700
692
612
554
478
490
505
514
542
560
579
487
368
300
257
268
308
353
432
561
664
672
593
545
493
494
534
546
585
615
650
544
433
376
333
346
391
444
506
632
754
761
681
629
596
557
573
603
633
664
686
620
448
387
355
367
414
455
536
619
727
725
631
572
531
486
497
532
560
583
603
536
351
283
254
262
296
338
428
487
593
624
550
503
478
480
455
482
518
540
560
496
363
266
265
283
317
363
451
526
611
638
562
513
491
486
459
490
550
581
608
547
419
299
280
316
347
401
497
597
662
687
631
589
559
556
560
542
592
626
648
593
466
383
324
357
403
447
530
610
660
664
613
575
632
700
702
648
675
707
712
654
531
459
380
398
440
468
541
617
688
653
601
592
622
703
818
894
885
883
849
773
660
572
496
482
525
557
625
685
736
687
626
612
599
582
592
608
598
645
689
628
480
383
354
334
380
412
479
574
676
683
574
556
553
544
545
536
545
550
627
605
480
380
309
253
268
323
404
484
557
555
443
421
429
431
452
471
503
488
532
510
399
334
295
298
296
356
463
553
628
631
548
477
480
507
532
549
579
588
595
570
456
382
342
350
351
395
499
583
665
669
590
500
496
515
523
532
554
571
550
511
409
334
292
293
321
327
432
536
608
613
539
498
446
468
482
492
519
541
535
482
382
311
269
273
303
304
398
507
586
593
510
467
395
412
440
449
475
495
510
418
301
248
209
221
252
296
356
470
571
584
515
476
451
427
463
483
516
540
569
484
371
326
292
303
342
390
441
554
669
684
615
574
549
508
524
561
593
616
638
586
428
379
364
382
423
486
614
747
946
1022
992
939
890
847
813
806
785
758
743
658
462
367
327
312
331
357
428
462
557
581
502
460
439
428
406
435
485
510
529
468
334
219
192
207
238
278
362
446
489
519
454
411
390
391
367
374
429
454
478
427
303
187
161
195
238
287
379
472
526
560
527
503
492
504
524
514
573
628
663
623
504
433
368
404
459
504
577
655
722
701
641
592
561
548
551
534
566
614
636
585
463
387
314
344
416
467
557
651
735
701
640
617
591
583
588
593
591
636
678
637
524
455
421
406
465
514
607
699
774
768
675
657
637
621
625
631
623
657
707
652
527
444
396
352
391
448
526
601
676
678
566
538
534
535
535
546
574
564
607
570
448
374
327
311
319
389
494
584
662
661
562
523
526
527
539
545
578
563
595
563
438
359
321
321
308
359
456
539
615
619
539
459
450
466
457
464
487
505
496
462
339
254
203
204
229
244
348
440
531
540
474
396
373
382
393
404
433
461
453
437
358
292
256
263
294
294
391
496
574
580
508
466
409
421
448
464
497
518
533
447
339
270
225
219
251
281
361
477
572
571
505
467
415
435
491
525
594
680
754
708
627
548
485
483
512
551
615
742
865
901
832
781
772
723
706
680
672
676
694
633
455
385
360
380
421
465
532
599
698
694
615
560
527
494
527
591
653
701
726
680
519
460
428
421
452
484
564
617
711
739
665
631
614
625
616
704
784
825
848
800
657
525
448
413
420
434
515
574
664
695
623
585
570
563
518
531
590
619
652
607
469
346
335
381
422
461
542
618
673
717
652
596
547
511
491
464
506
525
537
479
340
241
191
224
257
302
394
486
537
560
511
476
460
462
474
443
500
553
588
540
417
337
263
280
348
395
485
577
656
630
578
551
532
531
542
551
556
604
638
580
452
369
299
299
359
401
482
565
646
613
549
528
506
502
510
513
497
539
579
528
396
313
270
240
290
340
430
513
594
596
487
465
450
447
452
462
482
489
538
500
372
292
247
218
254
319
408
493
574
576
449
424
426
423
432
443
472
463
512
498
379
313
284
298
309
373
480
577
665
690
627
570
575
576
587
605
638
642
647
607
472
385
345
358
364
420
524
593
655
646
547
455
469
490
508
524
557
585
579
569
484
443
438
460
501
524
660
777
856
859
752
674
601
591
600
607
654
691
701
670
575
504
471
489
527
538
657
796
918
987
951
925
883
918
964
979
1001
1013
1005
862
669
547
464
432
426
451
513
633
733
748
649
583
540
519
557
553
567
572
573
475
327
253
203
215
263
308
364
480
587
575
481
426
385
327
345
374
408
429
460
407
236
179
155
169
218
269
364
440
566
591
502
445
409
373
380
413
458
490
511
467
279
207
189
200
247
299
403
465
585
630
538
481
455
441
416
447
502
531
558
494
339
208
177
187
230
283
399
506
596
647
571
521
487
483
479
518
615
667
702
637
486
351
312
287
272
275
381
519
611
665
603
551
531
546
557
540
588
628
656
604
448
344
253
268
335
404
522
635
715
712
627
560
520
510
515
483
525
577
618
562
411
304
213
242
313
360
461
569
672
662
606
589
574
601
621
630
622
642
622
539
386
324
341
396
501
577
677
763
846
833
751
743
737
740
756
764
736
749
774
692
525
412
354
319
384
455
553
648
742
747
602
557
533
522
523
515
529
504
545
502
351
256
211
194
223
283
374
456
545
549
426
384
386
387
398
411
441
419
472
455
322
243
207
219
225
292
419
523
619
642
572
503
513
530
554
571
604
634
634
622
503
431
395
406
430
458
577
667
750
762
682
605
603
626
611
600
618
647
648
650
557
487
454
468
507
491
575
659
715
662
513
432
366
412
486
540
604
647
671
610
514
463
444
461
497
499
571
662
718
696
582
504
411
404
426
431
459
484
513
438
341
300
270
280
314
342
381
464
545
542
451
397
361
321
350
361
384
401
418
357
206
108
0
0
0
0
79
213
364
406
329
275
243
210
255
306
348
381
404
363
180
122
112
125
179
235
332
391
510
556
503
482
477
489
483
526
568
591
613
563
405
315
292
293
323
354
435
473
564
597
511
459
426
412
372
398
449
475
502
460
324
208
179
199
235
271
357
435
470
482
381
308
265
253
254
241
284
292
304
243
114
19
0
39
86
128
216
291
312
325
252
194
160
174
219
232
323
411
478
482
390
340
285
324
383
416
499
579
657
637
579
540
513
511
522
519
540
585
618
568
433
354
283
305
364
407
489
570
647
613
553
533
511
503
509
510
496
537
585
545
408
326
280
242
298
347
438
523
604
615
509
493
479
478
492
508
524
555
604
572
443
366
323
289
329
394
477
556
639
652
523
494
493
490
499
503
528
511
548
511
380
298
257
274
299
393
551
711
807
792
693
622
604
594
596
585
593
585
593
566
436
353
301
279
248
295
390
454
521
548
497
448
466
501
535
559
594
601
575
534
402
331
280
252
235
194
247
271
297
281
188
166
190
258
297
339
401
439
431
428
359
288
238
235
278
289
433
573
670
684
623
576
507
512
538
555
598
635
682
663
618
596
594
621
666
682
732
825
883
862
765
720
692
722
788
816
844
859
874
806
708
659
612
581
577
575
591
675
764
787
717
692
674
624
620
614
608
608
625
600
470
431
398
384
399
405
460
523
627
657
590
554
526
474
471
504
542
575
604
562
418
384
380
387
413
434
491
512
593
625
554
521
512
518
502
540
597
651
711
711
620
539
532
548
575
619
697
751
812
844
771
721
690
673
639
659
704
719
735
706
598
497
492
523
554
583
646
703
727
733
670
618
593
586
600
572
617
642
646
617
508
451
397
425
461
491
560
620
656
666
621
583
558
550
560
526
580
632
662
624
522
464
398
423
477
497
562
620
678
645
587
565
552
561
583
598
609
662
704
687
577
511
460
448
504
541
608
667
726
699
639
624
608
611
631
639
628
680
732
704
591
522
478
437
476
512
567
628
693
705
619
614
607
615
638
660
703
707
748
724
613
547
508
487
510
562
633
693
753
756
641
619
621
615
619
628
654
632
677
665
556
496
465
466
460
504
589
648
703
696
603
523
516
519
525
531
560
577
586
589
489
430
403
396
395
415
509
571
623
622
540
454
450
472
481
492
524
550
536
529
446
387
355
361
380
380
470
551
620
633
558
525
479
507
534
547
581
609
621
591
504
456
431
440
474
472
562
661
735
753
679
652
614
686
780
832
879
908
927
847
741
674
627
622
645
651
681
756
801
755
590
429
328
287
365
421
443
415
367
247
92
32
0
0
39
69
129
245
356
367
281
220
153
67
62
94
166
256
340
343
190
123
95
106
174
243
322
340
400
406
333
301
290
285
323
431
536
601
649
623
490
450
459
477
511
545
598
592
666
702
635
605
594
591
544
526
528
497
456
408
334
288
338
422
492
545
597
597
524
416
223
83
0
0
51
353
563
625
595
519
460
451
483
498
464
408
391
381
357
349
340
340
337
323
314
288
340
393
407
393
378
345
297
400
406
343
283
255
283
308
399
437
408
415
476
528
620
700
725
652
495
454
676
1009
1022
883
786
649
451
157
0
0
0
0
0
0
0
0
0
0
0
0
150
331
620
926
1022
1023
1022
917
411
0
0
66
199
243
219
204
202
111
35
111
217
255
143
0
0
0
0
0
0
0
0
0
0
0
0
0
0
0
0
263
498
666
711
705
591
418
340
442
479
530
544
513
431
435
497
536
627
727
889
1022
1022
1022
1022
1022
1022
931
737
572
521
527
591
670
717
761
813
875
900
964
1022
1022
1023
1022
1022
1022
1022
1020
848
693
615
588
606
648
662
668
670
664
635
674
775
901
1003
1022
1022
975
967
934
862
784
760
778
741
736
724
701
697
708
721
691
722
794
835
846
834
799
773
749
699
642
624
647
632
676
740
786
814
798
770
685
714
796
838
848
833
804
724
679
637
576
536
557
586
582
637
709
778
802
791
798
847
1005
1022
1022
1022
1022
1021
978
943
856
806
851
898
886
916
976
1022
1022
1013
972
947
1019
1022
1022
1022
1022
1022
924
884
824
737
687
658
671
634
641
624
609
600
579
582
631
693
742
780
776
750
667
638
618
585
579
553
509
472
517
551
559
623
735
879
1020
1022
1022
1022
1022
1022
1022
1022
1022
1022
1023
1022
1021
993
979
1021
1022
1020
931
864
808
768
777
756
724
732
744
693
638
564
521
513
560
611
587
601
647
700
751
776
817
834
958
1022
1022
1022
1023
912
743
698
734
728
705
697
704
655
583
494
397
306
245
150
76
56
1
0
0
0
0
0
0
39
177
256
283
279
329
380
344
291
304
344
366
439
482
496
484
470
391
276
273
288
317
353
395
440
452
464
397
299
275
280
265
269
273
251
208
168
111
5
13
30
33
32
25
13
0
0
0
0
45
67
35
0
0
0
0
0
0
0
63
205
312
367
397
439
483
575
655
652
651
658
721
742
697
649
637
679
646
592
541
528
528
526
511
484
482
496
525
455
375
342
367
412
403
467
503
514
494
441
417
413
467
474
423
447
547
619
613
587
568
568
601
612
571
643
721
707
648
597
587
534
534
557
585
639
693
712
628
558
595
651
669
673
664
631
619
590
507
423
429
405
388
416
435
446
440
450
417
396
438
438
420
408
412
393
396
396
366
293
277
312
297
324
365
408
437
454
408
330
416
517
551
575
591
591
547
547
501
457
519
578
559
547
573
611
643
661
638
580
657
784
875
949
991
1008
963
941
880
852
940
1023
1022
1022
1022
1023
1023
1022
1023
1022
1022
1023
1022
1022
1022
1022
1023
1022
1022
1022
1022
1023
1022
1022
1022
1022
1022
1022
1023
1022
1022
1022
1022
1022
1022
1022
1023
1022
1022
1022
1022
1019
958
892
743
621
487
376
273
288
370
360
380
364
318
240
171
107
53
82
201
317
452
603
700
824
937
966
981
1022
1022
1023
1022
1022
1022
1022
911
704
479
376
329
261
155
11
0
0
0
0
0
0
0
0
0
0
0
0
0
0
0
0
0
0
0
0
0
0
0
0
0
0
0
0
0
0
0
0
0
0
0
0
0
0
0
0
0
0
0
0
0
0
0
0
0
0
0
0
0
14
0
0
70
182
230
235
240
239
163
183
182
214
313
404
466
431
411
390
281
114
0
0
0
0
0
0
0
23
39
30
35
99
222
327
404
396
359
339
247
132
11
0
0
0
51
75
99
131
148
132
165
215
300
364
411
404
323
317
279
212
113
40
54
56
129
193
227
277
301
325
300
367
484
576
643
663
617
599
563
480
365
275
278
244
284
331
345
376
395
413
343
353
440
494
536
544
523
475
448
404
310
231
232
250
248
306
344
383
408
430
401
386
481
556
613
639
635
576
525
466
324
226
220
228
208
249
307
345
368
366
334
273
348
395
380
343
295
267
157
80
0
0
0
0
56
48
98
125
93
20
0
0
0
80
183
235
273
328
291
272
188
47
0
0
0
0
0
102
167
255
315
329
378
507
647
721
739
825
927
1010
1022
1021
980
948
927
932
929
1008
1022
1022
967
827
742
742
815
888
931
996
1020
986
928
798
703
631
570
522
453
562
662
719
664
564
547
536
589
679
728
794
832
845
760
658
591
530
492
463
423
441
498
532
505
415
405
407
501
625
692
781
833
844
734
603
563
528
515
495
475
472
556
673
694
588
533
499
498
572
599
655
677
657
543
307
235
216
262
360
445
502
526
568
469
195
62
9
0
139
292
492
708
936
1021
845
774
735
713
720
723
779
796
848
783
476
263
151
153
240
401
651
904
1022
1022
1017
810
714
644
603
584
630
655
732
689
401
208
118
158
254
423
710
971
1022
1022
1022
900
845
853
873
889
954
993
993
897
585
360
246
255
369
463
728
988
1022
1022
1022
909
804
791
780
774
812
837
823
732
411
169
43
49
159
240
525
823
1022
1022
1016
865
747
740
775
780
835
872
903
770
440
203
67
64
171
287
512
808
1022
1022
942
780
649
601
620
608
638
659
679
524
176
0
0
0
0
97
331
651
961
1022
918
793
719
656
684
700
740
779
820
723
348
139
36
41
165
278
515
764
1021
1022
936
792
699
614
607
609
621
617
626
501
91
0
0
0
0
69
339
579
852
983
817
702
639
629
623
664
733
777
820
729
397
147
68
101
234
377
643
894
1022
1022
1022
931
839
798
737
742
798
816
832
716
351
47
0
0
69
191
450
722
936
1022
875
731
643
606
602
566
634
676
706
604
268
30
0
0
42
161
411
675
877
972
816
691
608
576
569
526
593
651
691
593
279
78
0
0
86
194
431
678
904
945
793
678
593
558
536
519
510
553
588
501
211
30
0
0
91
218
450
684
898
935
790
702
632
590
583
568
545
595
651
570
296
127
50
43
171
297
508
720
924
981
797
713
675
658
670
669
693
688
732
634
334
140
41
23
119
241
447
654
845
889
661
548
492
460
453
441
463
431
468
396
99
0
0
0
0
74
314
547
748
814
644
491
434
397
380
364
385
391
408
346
66
0
0
0
0
0
260
491
711
791
635
480
445
459
478
496
558
615
641
599
356
186
105
129
232
308
548
782
993
1022
900
769
646
623
596
575
591
593
583
466
187
0
0
0
19
90
326
574
773
815
617
459
310
284
283
287
335
378
425
314
34
0
0
0
0
3
216
472
703
779
606
481
399
357
388
390
432
460
487
363
70
0
0
0
0
105
312
591
856
951
803
692
627
563
583
611
654
678
689
575
209
16
0
0
28
125
348
560
816
908
744
622
541
486
468
487
531
577
625
544
185
0
0
0
22
147
358
603
910
1022
934
810
719
654
566
532
534
529
551
460
172
0
0
0
142
293
561
840
1022
1022
1023
998
946
935
910
920
976
992
1008
887
537
241
116
119
198
289
500
696
853
914
723
556
455
403
403
374
445
505
536
446
109
0
0
0
0
133
451
788
1022
1022
1023
977
891
836
827
778
824
875
897
772
384
93
0
0
0
135
409
709
994
1022
929
818
736
705
713
720
743
814
871
787
459
225
96
72
205
331
590
868
1022
1022
986
834
710
632
571
483
406
361
357
182
0
0
0
0
0
0
0
0
128
285
152
112
126
150
171
183
273
327
462
427
104
0
0
0
0
51
366
676
955
1021
661
399
205
56
0
0
0
0
0
0
0
0
0
0
0
0
0
0
0
110
0
0
0
0
0
0
81
225
332
300
0
0
0
0
0
0
349
816
1022
1023
1023
1022
1023
1022
1022
1022
1023
1023
1023
1022
934
595
401
394
539
672
1018
1023
1022
1023
1022
1022
1023
1022
1023
1023
1022
1022
1022
1022
1021
675
489
474
603
738
1022
1023
1022
1023
1023
1022
1023
1022
1022
1022
1022
1023
1022
1022
623
301
120
125
283
465
782
1023
1022
1022
1023
1022
1023
1022
1022
1022
1022
1023
1022
951
453
118
0
0
49
218
536
924
1022
1023
1023
1022
903
799
796
811
849
879
919
796
308
0
0
0
0
188
541
898
1022
1022
1022
1022
928
870
848
870
929
974
1017
896
428
83
0
0
106
295
654
1013
1022
1022
1022
1022
1022
994
932
927
975
991
1006
854
371
0
0
0
0
131
480
863
1022
1023
1022
962
833
769
748
703
773
815
857
715
248
0
0
0
0
68
438
835
1022
1023
1023
984
860
789
771
700
754
800
830
692
234
0
0
0
0
84
460
867
1022
1022
1023
993
866
801
780
751
776
831
869
734
271
0
0
0
0
88
454
850
1022
1022
1022
964
846
781
764
742
738
784
834
691
214
0
0
0
0
0
374
765
1022
1023
1022
892
780
724
714
704
721
751
812
673
196
0
0
0
0
0
323
712
1022
1022
968
790
683
614
593
571
600
595
639
518
54
0
0
0
0
0
265
669
1022
1022
1015
781
679
622
604
589
621
612
643
522
49
0
0
0
0
0
183
585
971
1022
921
697
600
568
561
549
589
621
629
512
65
0
0
0
0
0
215
613
988
1022
926
711
576
544
524
509
543
574
561
437
0
0
0
0
0
0
100
510
884
1022
813
608
436
397
410
397
441
479
517
344
0
0
0
0
0
0
0
454
864
1022
841
655
504
452
471
449
483
512
545
356
0
0
0
0
0
0
0
304
703
875
668
463
326
230
258
282
349
389
425
264
0
0
0
0
0
0
54
503
984
1022
1023
930
834
781
820
879
975
1022
1022
987
442
79
0
0
0
139
481
829
1022
1022
1023
918
769
735
727
746
806
818
796
623
135
0
0
0
0
139
598
1022
1022
1022
1022
1022
1023
1022
1022
1022
1022
1022
1022
852
304
0
0
0
0
0
423
881
1022
1022
1022
1022
1023
1022
1022
1022
1022
1023
1022
1022
586
178
0
0
100
275
647
1022
1022
1022
1022
1022
846
746
698
596
629
662
680
503
0
0
0
0
0
0
18
463
882
1022
839
654
527
472
444
402
409
473
550
392
0
0
0
0
0
0
195
587
960
1021
732
483
242
90
35
0
0
0
0
0
0
0
0
0
0
0
55
703
1022
1022
1022
1022
1023
1022
1022
1022
1022
1023
1022
1023
1023
651
349
239
299
420
718
1022
1022
1022
1022
771
582
472
438
420
479
499
607
524
56
0
0
0
0
50
531
1019
1022
1023
1023
1022
1023
1022
1022
1022
1022
1023
1022
1022
694
259
24
25
189
426
888
1023
1023
1023
1022
1023
1023
1022
1022
1022
1022
1023
1022
1023
953
494
189
85
147
209
520
867
1022
1022
816
417
40
0
0
0
0
0
0
0
0
0
0
0
0
0
0
0
0
0
0
0
0
240
594
882
1022
1023
1022
1022
873
498
312
335
543
778
1022
1023
1022
1023
1022
1022
1023
1022
1023
1023
1022
1023
1022
1022
315
0
0
0
0
0
126
651
1022
1023
1023
1021
937
894
980
1022
1022
1023
1022
1022
648
263
65
79
283
526
972
1023
1022
1023
1023
1022
1023
1022
1023
1022
1022
1023
1022
1022
692
253
9
0
83
249
616
978
1023
1022
1022
1018
822
729
652
640
698
723
751
569
11
0
0
0
0
0
101
568
995
1023
1018
792
668
618
615
622
733
812
889
755
231
0
0
0
0
0
396
821
1022
1022
1021
792
705
708
755
727
820
901
957
801
254
0
0
0
0
0
409
888
1022
1022
1023
1022
900
832
808
708
683
673
636
393
0
0
0
0
0
0
0
197
600
678
374
112
0
0
0
0
31
247
438
363
0
0
0
2
622
1022
1022
1023
1022
1022
1022
1022
1023
1022
1022
1023
1022
1023
1022
1023
1022
1022
1023
1023
1023
1022
1022
1023
1023
1022
1022
1022
1023
990
727
592
574
410
407
118
0
0
0
0
0
0
0
0
438
752
498
250
83
0
0
0
63
83
119
0
0
0
0
0
0
0
0
381
980
1022
945
617
423
314
264
275
323
304
335
160
0
0
0
0
0
0
0
124
734
1022
912
760
735
766
805
874
988
1022
1022
894
290
0
0
0
0
0
473
1018
1022
1022
1023
1022
902
807
782
736
757
783
818
576
0
0
0
0
0
0
90
655
1022
1022
1022
766
547
443
402
345
373
387
396
115
0
0
0
0
0
0
0
286
860
1022
824
572
412
320
346
344
397
430
464
261
0
0
0
0
0
0
0
134
627
827
502
210
9
0
0
0
0
0
0
0
0
0
0
0
0
0
0
0
548
847
652
485
405
410
448
543
678
783
887
753
186
0
0
0
0
42
508
974
1022
1023
1023
1022
952
844
744
710
744
736
729
500
0
0
0
0
0
0
0
286
723
940
679
436
284
219
216
187
283
354
425
278
0
0
0
0
0
0
181
716
1022
1023
1023
979
825
745
711
627
680
733
751
549
0
0
0
0
0
0
0
427
877
1022
786
549
403
305
268
234
251
313
328
129
0
0
0
0
0
0
0
348
829
1020
799
606
470
429
439
427
445
513
576
407
0
0
0
0
0
0
0
515
997
1022
950
765
623
550
531
529
566
621
707
575
64
0
0
0
0
0
393
885
1022
1023
1023
1022
1022
992
997
992
1022
1022
1022
1020
476
71
0
0
0
214
651
1023
1023
1022
1022
1022
1023
1022
1022
991
998
972
987
831
279
0
0
0
0
0
406
871
1022
1023
1023
1009
862
811
800
783
833
872
880
737
211
0
0
0
0
0
324
812
1022
1022
1023
1021
847
805
802
783
825
855
859
707
197
0
0
0
0
0
345
849
1022
1022
1022
1022
899
849
862
840
873
884
900
691
157
0
0
0
0
0
217
716
1022
1023
1022
999
839
779
794
789
840
881
925
744
248
0
0
0
0
128
519
1007
1022
1022
1022
1022
1023
972
957
944
962
972
990
815
234
0
0
0
0
0
319
742
1022
1023
1023
976
840
743
741
760
822
873
930
798
257
0
0
0
0
161
589
1011
1022
1023
1023
1022
1023
1006
922
901
931
934
948
771
225
0
0
0
0
0
342
790
1022
1023
1023
1022
896
806
745
722
768
775
789
610
63
0
0
0
0
0
66
505
908
1022
939
736
607
557
561
541
636
713
781
654
153
0
0
0
0
0
368
820
1022
1022
1023
979
811
713
666
578
606
637
644
473
0
0
0
0
0
0
86
555
1012
1023
1022
865
751
708
717
721
754
832
904
775
277
0
0
0
0
45
446
881
1022
1023
1023
997
825
734
686
639
609
637
679
517
0
0
0
0
0
0
138
600
1022
1023
1022
850
745
686
694
688
743
769
837
711
193
0
0
0
0
0
323
779
1022
1023
1023
958
837
761
736
707
735
711
762
617
94
0
0
0
0
0
217
674
1022
1023
1022
877
757
705
694
678
720
749
768
649
138
0
0
0
0
0
308
761
1022
1023
1023
934
804
743
719
692
722
738
732
600
103
0
0
0
0
0
283
767
1022
1023
1022
1022
863
822
824
810
856
892
928
763
265
0
0
0
0
0
401
888
1022
1022
1022
1022
903
831
814
759
777
788
803
583
63
0
0
0
0
0
140
604
1022
1023
1022
786
631
536
542
551
611
668
734
600
87
0
0
0
0
0
319
798
1022
1022
1023
1022
949
828
829
822
850
863
878
702
110
0
0
0
0
0
178
609
1022
1022
1022
883
747
686
653
675
736
782
839
708
179
0
0
0
0
0
449
894
1023
1023
1022
1022
1022
958
889
884
938
965
983
818
261
0
0
0
0
0
278
736
1022
1023
1023
916
762
687
662
621
687
726
772
618
93
0
0
0
0
0
312
787
1022
1022
1023
1022
891
823
808
747
800
850
885
731
190
0
0
0
0
0
349
827
1022
1022
1022
1022
946
881
860
830
864
921
952
799
254
0
0
0
0
0
374
839
1022
1023
1023
1021
860
763
730
694
684
723
775
618
76
0
0
0
0
0
277
765
1022
1022
1023
1022
936
868
868
857
884
920
984
835
292
0
0
0
0
0
411
874
1022
1022
1022
1021
871
781
737
704
728
715
763
623
75
0
0
0
0
0
248
734
1022
1022
1023
1012
902
862
875
885
937
944
990
852
296
0
0
0
0
0
407
880
1022
1023
1023
917
747
664
598
510
459
389
311
94
0
0
0
0
0
0
0
304
826
1022
933
761
677
691
719
755
871
1008
1022
1022
678
353
202
249
468
672
1022
1023
1022
1023
1022
1022
1023
1022
1022
1023
1022
1022
1022
1022
513
0
0
0
0
0
239
719
1022
1023
1022
740
542
439
402
366
401
424
457
247
0
0
0
0
0
0
0
540
1022
1022
1023
831
689
590
615
627
683
721
764
596
0
0
0
0
0
0
171
641
1022
1022
1022
851
673
551
521
508
536
559
591
419
0
0
0
0
0
0
66
542
1022
1022
1022
888
748
678
645
652
715
755
802
647
82
0
0
0
0
0
333
836
1022
1023
1023
1022
933
851
797
780
840
868
896
719
122
0
0
0
0
0
224
714
1022
1022
1022
900
724
629
592
527
577
612
648
468
0
0
0
0
0
0
45
552
1009
1023
1020
768
603
517
487
424
477
534
565
403
0
0
0
0
0
0
0
524
1017
1022
1021
811
666
602
595
582
611
687
754
615
55
0
0
0
0
0
340
864
1022
1023
1022
1022
1013
931
912
892
896
947
1016
847
270
0
0
0
0
0
426
941
1022
1023
1023
1022
1022
957
926
900
933
926
974
799
188
0
0
0
0
0
241
733
1022
1023
1022
884
732
639
610
582
617
599
658
518
0
0
0
0
0
0
98
606
1022
1022
1022
814
679
619
604
591
634
669
686
536
0
0
0
0
0
0
165
666
1022
1023
1023
892
756
712
710
696
745
788
796
667
133
0
0
0
0
0
367
881
1022
1022
1023
1022
897
830
813
760
777
789
799
603
48
0
0
0
0
0
231
772
1022
1022
1022
1022
895
852
873
860
904
937
973
758
199
0
0
0
0
0
287
792
1022
1023
1023
984
812
700
706
686
719
745
777
591
10
0
0
0
0
0
187
701
1022
1023
1023
993
839
719
727
731
772
802
834
660
53
0
0
0
0
0
248
714
1022
1022
1022
1017
856
785
743
766
824
869
926
770
187
0
0
0
0
0
472
938
1022
1022
1023
1022
1022
977
908
891
941
959
979
796
204
0
0
0
0
0
275
768
1022
1022
1022
938
770
680
626
593
653
687
726
566
3
0
0
0
0
0
241
752
1022
1022
1023
1021
867
784
763
703
757
807
838
664
84
0
0
0
0
0
210
704
1022
1023
1023
942
786
710
685
638
677
733
775
615
51
0
0
0
0
0
298
807
1022
1022
1023
1022
954
888
881
864
880
939
996
827
251
0
0
0
0
0
371
860
1022
1023
1023
1022
884
798
768
735
733
762
817
644
63
0
0
0
0
0
246
751
1022
1022
1022
975
843
775
748
734
775
780
832
682
105
0
0
0
0
0
243
738
1022
1023
1023
901
759
686
647
620
648
632
677
529
0
0
0
0
0
0
164
678
1022
1022
1023
943
820
767
757
740
785
819
829
687
122
0
0
0
0
0
281
789
1022
1022
1022
1012
839
786
759
732
766
785
777
610
55
0
0
0
0
0
182
702
1022
1022
1023
914
716
649
635
608
646
679
707
505
0
0
0
0
0
0
116
640
1022
1022
1022
880
696
637
657
655
711
753
803
591
56
0
0
0
0
0
193
691
1022
1022
1023
844
664
532
512
488
521
547
575
400
0
0
0
0
0
0
60
576
1022
1022
1022
903
769
676
689
709
761
801
850
679
80
0
0
0
0
0
375
832
1022
1023
1022
1022
866
759
675
644
663
665
675
468
0
0
0
0
0
0
48
541
1022
1022
1023
956
854
828
806
822
884
903
918
731
152
0
0
0
0
0
321
804
1022
1023
1023
1022
929
879
867
814
875
910
936
758
178
0
0
0
0
0
189
651
1022
1022
1022
815
667
606
604
550
623
693
744
602
73
0
0
0
0
0
412
891
1022
1022
1023
1022
870
784
744
711
709
751
799
629
96
0
0
0
0
0
337
815
1022
1022
1022
1008
851
785
769
747
749
809
879
724
185
0
0
0
0
0
452
959
1022
1022
1022
1022
1023
1022
1023
1022
1022
1022
1022
1022
518
81
0
0
0
217
638
1022
1022
1023
1023
1022
992
914
887
861
882
844
880
714
169
0
0
0
0
0
316
766
1022
1023
1023
824
678
598
557
536
576
603
624
502
0
0
0
0
0
0
304
790
1022
1023
1023
1009
883
831
819
792
817
829
807
647
115
0
0
0
0
0
319
822
1022
1023
1022
1022
901
866
868
862
912
946
968
803
273
0
0
0
0
0
380
859
1022
1022
1023
940
703
610
573
496
482
462
454
222
0
0
0
0
0
0
0
433
972
1022
1022
932
828
773
824
856
945
1020
1022
990
471
118
0
0
131
366
751
1023
1022
1022
1022
1022
1022
923
864
805
782
744
707
452
0
0
0
0
0
0
0
318
885
1022
1021
846
739
698
703
748
834
902
976
841
289
0
0
0
0
275
742
1023
1022
1022
1022
1022
1023
1022
1022
1022
1022
1022
1022
871
294
0
0
0
0
0
366
840
1022
1023
1022
1021
871
809
787
776
852
896
945
777
217
0
0
0
0
0
388
873
1022
1022
1022
1022
912
848
822
771
830
880
907
726
139
0
0
0
0
0
231
710
1022
1022
1023
898
748
674
654
601
647
708
757
599
57
0
0
0
0
0
331
824
1022
1022
1023
1022
935
879
887
886
916
989
1022
890
330
0
0
0
0
39
467
935
1022
1023
1023
1022
851
753
709
668
655
680
725
536
0
0
0
0
0
0
213
713
1022
1023
1023
935
817
753
741
718
744
735
780
610
46
0
0
0
0
0
258
742
1022
1023
1022
862
722
647
626
607
644
636
671
516
0
0
0
0
0
0
159
651
1022
1023
1022
836
716
667
655
643
688
720
729
580
35
0
0
0
0
0
215
694
1022
1022
1022
827
681
641
615
594
637
673
681
530
10
0
0
0
0
0
290
820
1022
1023
1022
1020
799
718
686
642
664
671
676
449
0
0
0
0
0
0
7
553
1021
1022
1022
824
657
627
648
658
718
761
811
607
100
0
0
0
0
0
390
893
1022
1022
1022
1022
954
846
820
785
795
800
810
612
16
0
0
0
0
0
243
753
1022
1022
1022
1022
968
891
923
948
1003
1022
1022
920
313
0
0
0
0
0
399
815
1022
1022
1022
920
746
651
584
574
615
643
676
499
0
0
0
0
0
0
141
595
1022
1023
1022
844
696
627
569
582
659
706
765
609
71
0
0
0
0
0
366
844
1022
1023
1022
984
821
743
721
671
736
774
809
632
74
0
0
0
0
0
298
771
1022
1022
1022
964
807
723
687
597
640
680
705
521
0
0
0
0
0
0
235
737
1022
1022
1022
963
826
775
771
753
762
804
835
645
80
0
0
0
0
0
337
835
1022
1022
1023
1022
947
888
876
848
836
870
909
707
127
0
0
0
0
0
252
739
1022
1022
1022
989
864
807
795
778
808
820
871
687
120
0
0
0
0
0
299
785
1022
1022
1022
906
780
711
689
672
716
718
788
646
105
0
0
0
0
0
293
773
1022
1023
1022
932
820
779
776
784
842
871
920
778
230
0
0
0
0
0
382
843
1022
1023
1023
869
718
651
614
579
606
624
614
443
0
0
0
0
0
0
225
739
1022
1023
1023
930
755
702
679
655
688
715
724
556
31
0
0
0
0
0
231
738
1022
1023
1022
939
755
713
721
709
753
783
814
591
48
0
0
0
0
0
260
774
1023
1022
1022
995
830
741
748
728
760
785
797
570
8
0
0
0
0
0
106
611
1022
1022
1022
862
732
649
678
690
743
783
831
672
111
0
0
0
0
0
438
896
1022
1022
1023
1022
946
855
839
846
884
913
932
738
127
0
0
0
0
0
353
801
1022
1023
1022
1022
881
814
775
788
861
910
969
811
274
0
0
0
0
46
464
904
1023
1022
1023
1020
833
738
660
621
661
670
683
491
0
0
0
0
0
0
191
700
1022
1022
1022
975
839
776
760
711
766
794
816
622
55
0
0
0
0
0
234
711
1022
1022
1022
850
679
587
553
494
583
682
742
589
55
0
0
0
0
0
377
871
1022
1023
1023
1022
931
851
827
796
796
842
874
681
107
0
0
0
0
0
268
754
1022
1022
1022
944
796
729
704
681
682
739
806
641
100
0
0
0
0
0
368
855
1022
1023
1022
1021
870
791
760
730
763
759
807
619
58
0
0
0
0
0
248
724
1022
1023
1022
887
766
699
676
653
688
672
734
592
60
0
0
0
0
0
392
886
1022
1022
1022
1022
979
924
904
871
892
902
891
719
163
0
0
0
0
0
307
782
1022
1023
1023
916
782
736
718
689
718
739
720
552
11
0
0
0
0
0
260
795
1022
1022
1022
1022
914
883
885
865
899
924
932
736
207
0
0
0
0
0
347
846
1022
1022
1023
1015
799
734
728
705
743
775
807
587
49
0
0
0
0
0
247
750
1022
1022
1022
960
791
670
655
638
674
697
720
512
0
0
0
0
0
0
138
633
1022
1022
1022
883
748
644
658
666
707
731
757
565
0
0
0
0
0
0
199
663
1022
1023
1023
958
823
760
723
733
783
819
856
682
119
0
0
0
0
0
377
825
1022
1022
1023
1022
943
879
813
822
889
926
972
796
250
0
0
0
0
12
463
952
1022
1023
1022
1022
1022
957
915
871
925
952
977
787
224
0
0
0
0
0
423
902
1022
1022
1022
1022
920
846
822
766
824
874
911
723
166
0
0
0
0
0
311
778
1022
1022
1022
915
763
686
656
613
639
686
724
534
0
0
0
0
0
0
168
643
1022
1023
1021
803
649
577
559
532
529
576
616
431
0
0
0
0
0
0
97
583
1022
1023
990
802
678
630
621
616
641
692
754
590
54
0
0
0
0
0
328
807
1022
1023
1022
961
842
764
742
716
749
748
803
640
96
0
0
0
0
0
355
844
1022
1022
1022
1022
915
860
841
833
875
880
931
782
236
0
0
0
0
0
439
915
1022
1023
1023
1021
884
831
807
780
811
830
828
661
111
0
0
0
0
0
300
791
1022
1022
1022
942
794
750
732
715
754
776
772
603
73
0
0
0
0
0
271
765
1023
1022
1022
940
766
716
716
697
735
766
790
580
53
0
0
0
0
0
270
781
1022
1023
1022
984
816
759
768
750
783
811
826
593
50
0
0
0
0
0
244
734
1022
1023
1023
866
706
588
583
571
613
647
687
513
0
0
0
0
0
0
250
726
1022
1023
1023
951
816
733
744
757
799
827
852
663
68
0
0
0
0
0
371
814
1022
1023
1022
1020
859
793
755
758
802
833
873
696
147
0
0
0
0
39
488
957
1022
1022
1023
1022
1022
1020
960
943
993
1016
1022
851
296
0
0
0
0
82
504
972
1022
1023
1023
1022
949
876
851
807
868
917
958
773
216
0
0
0
0
0
436
926
1022
1023
1023
1022
827
691
596
474
502
551
598
431
0
0
0
0
0
0
256
717
1022
1022
1022
896
750
676
664
657
681
747
798
626
97
0
0
0
0
0
374
855
1022
1022
1022
1022
882
813
787
766
771
838
911
752
225
0
0
0
0
0
416
867
1022
1023
1022
964
829
759
729
694
698
667
676
451
0
0
0
0
0
0
0
473
904
1022
801
620
529
489
497
507
571
588
661
527
22
0
0
0
0
0
380
854
1023
1022
1022
1022
925
868
846
809
824
817
826
638
91
0
0
0
0
0
323
794
1022
1023
1022
929
821
790
772
767
807
834
828
662
163
0
0
0
0
0
449
906
1023
1022
1022
1022
862
818
814
808
854
883
903
724
220
0
0
0
0
0
434
902
1022
1022
1022
1021
847
810
815
792
827
861
899
680
156
0
0
0
0
0
271
732
1022
1022
1022
859
710
628
629
608
640
671
719
528
39
0
0
0
0
0
252
702
1022
1022
1022
818
687
595
592
589
608
631
670
505
0
0
0
0
0
0
250
673
1022
1023
1022
855
743
688
677
699
768
836
915
774
258
0
0
0
0
143
566
980
1022
1022
1023
1022
991
915
872
905
999
1022
1022
1022
536
159
0
0
124
276
610
985
1022
1022
1022
1022
880
826
796
769
817
841
863
672
171
0
0
0
0
47
444
878
1022
1023
1022
1009
806
694
608
517
542
587
624
440
0
0
0
0
0
0
128
545
949
1022
865
676
556
510
501
465
500
561
615
461
0
0
0
0
0
37
472
911
1022
1022
1022
913
752
662
614
564
547
577
608
442
0
0
0
0
0
0
259
691
1022
1023
938
741
607
546
531
503
492
506
539
348
0
0
0
0
0
0
106
543
958
1022
827
652
554
507
491
460
474
453
484
306
0
0
0
0
0
0
95
547
963
1022
855
657
566
526
518
500
536
526
577
432
0
0
0
0
0
0
288
733
1022
1022
1022
845
727
679
657
633
661
680
687
519
23
0
0
0
0
0
277
718
1022
1023
1022
796
664
624
608
589
620
638
630
463
0
0
0
0
0
0
168
625
1021
1022
948
746
593
560
567
549
592
622
655
444
0
0
0
0
0
0
219
683
1022
1022
1022
814
655
607
615
600
635
663
678
453
0
0
0
0
0
0
229
686
1022
1022
1022
835
710
632
642
638
671
701
723
540
11
0
0
0
0
0
300
739
1022
1022
1022
895
769
681
687
699
740
771
808
632
84
0
0
0
0
6
428
842
1022
1023
1022
1012
872
813
771
774
818
840
862
671
136
0
0
0
0
0
373
777
1022
1023
1022
898
767
697
645
642
695
716
740
546
26
0
0
0
0
0
308
747
1022
1022
1022
874
752
704
702
661
717
751
780
596
75
0
0
0
0
0
348
792
1022
1023
1022
913
786
731
723
665
726
775
807
624
108
0
0
0
0
0
414
857
1022
1023
1023
981
847
790
776
755
770
816
850
666
152
0
0
0
0
12
436
873
1023
1023
1023
971
841
771
759
739
738
782
833
648
132
0
0
0
0
0
414
859
1022
1023
1023
951
828
770
755
736
757
766
814
632
114
0
0
0
0
0
402
844
1023
1022
1022
934
823
768
758
743
782
777
832
672
161
0
0
0
0
31
460
896
1023
1023
1022
982
874
819
804
788
827
832
863
699
180
0
0
0
0
0
422
846
1023
1023
1022
866
748
704
683
665
699
720
721
548
39
0
0
0
0
0
238
678
1022
1023
986
748
593
547
593
643
734
774
753
571
91
0
0
0
0
255
694
1022
1022
1023
1022
1022
1022
982
963
866
814
758
739
560
113
0
0
0
0
0
332
917
1022
1022
1022
1022
1022
1022
1023
1023
1022
1022
1023
1023
707
346
103
47
168
313
597
974
1022
1023
1022
765
600
504
523
548
630
735
869
801
377
138
48
115
305
474
788
1022
1022
1023
1022
791
603
483
446
477
559
627
676
460
0
0
0
0
0
0
454
1000
1022
1023
1023
1022
1022
1022
1022
1022
1022
1022
1022
840
167
0
0
0
0
0
0
370
771
918
584
305
111
8
0
0
57
87
116
0
0
0
0
0
0
0
0
0
73
43
0
0
0
0
0
0
100
621
1022
1023
1022
1022
1022
1022
1023
1023
1022
1023
1022
1023
1023
1022
1022
1022
1022
809
524
247
0
0
0
0
0
0
0
0
0
0
0
0
0
0
289
588
829
1017
1022
1022
1022
1023
873
508
294
275
433
597
960
1022
1022
1023
1023
1022
1022
1022
1023
1023
1022
1022
1022
778
152
0
0
0
0
0
0
303
728
871
585
359
196
90
43
0
0
0
0
0
0
0
0
0
0
0
145
742
1022
1023
1023
1022
1022
1023
1023
1023
1022
1022
1022
1023
1019
550
246
148
172
288
592
907
1022
1023
839
488
233
22
0
0
0
0
0
0
0
0
0
0
0
0
0
657
1022
1023
1023
1022
1022
1022
1022
983
995
999
964
760
217
0
0
0
0
68
541
1022
1023
1023
1023
1022
1022
1022
1022
1023
1022
1022
1022
919
327
0
0
0
0
0
383
842
1022
1022
1022
860
620
545
543
534
578
604
628
395
0
0
0
0
0
0
25
533
995
1022
984
833
739
679
713
740
804
838
879
706
245
0
0
0
0
218
616
1022
1022
1023
1023
1022
971
801
774
675
576
529
451
146
0
0
0
0
0
0
380
749
1022
1022
1022
843
688
628
583
549
576
572
551
437
9
0
0
0
33
362
819
1022
1022
1022
1023
1022
1022
1022
1023
1022
1022
1022
1022
1022
724
423
344
514
779
995
1022
1022
1022
1023
1022
1013
793
672
611
525
483
398
281
50
0
0
0
0
0
0
0
0
0
0
0
0
0
0
0
0
0
0
0
0
0
0
60
154
149
25
0
0
0
0
0
0
0
0
0
0
0
0
0
0
0
0
0
0
0
0
0
0
0
0
0
0
0
0
0
0
0
0
0
0
0
0
0
0
0
0
0
0
121
243
147
245
388
556
781
1007
1022
1022
1022
1022
947
716
566
453
619
823
1022
1022
1023
1022
1023
1022
1023
1022
1022
1023
1022
1022
1023
1023
948
817
728
757
807
976
1022
1022
1023
1023
1023
1022
1023
1023
1023
1022
1022
1022
1022
1023
1023
1022
1022
1022
1023
1023
1022
1022
1022
1022
1023
1022
1022
1022
1023
1023
1022
1022
1023
1023
1022
1022
1022
1022
1022
1022
1022
1023
1022
1022
1023
1022
1022
1023
1023
1023
1022
1022
1022
1022
1022
956
962
999
1022
1022
1022
1022
1023
1023
1023
1022
1022
1022
1022
1022
1022
1022
1022
1022
890
846
866
942
1001
1021
1022
1022
1022
1022
1023
1022
1022
1017
1021
994
992
948
903
695
521
495
497
567
657
739
846
1012
1022
1022
1022
1022
1022
1008
1022
1023
1022
1022
1022
992
761
749
778
870
966
1022
1022
1022
