526
528
530
529
527
524
523
523
521
526
526
525
524
523
522
520
519
518
515
519
519
519
519
519
519
519
518
513
508
506
505
501
503
499
498
494
493
496
496
498
499
502
504
497
492
493
492
490
489
489
488
484
486
486
491
490
490
494
493
491
490
490
491
487
489
486
489
489
487
484
483
484
486
482
479
477
471
463
461
464
468
472
476
481
484
485
486
487
486
485
479
480
481
481
480
483
483
483
482
484
487
487
488
487
485
485
483
483
482
481
484
486
488
489
489
490
489
489
488
489
493
492
489
491
492
493
494
495
495
495
496
494
492
491
494
494
492
492
493
495
494
495
496
499
502
504
502
501
502
503
504
504
507
503
504
505
506
507
507
507
507
507
508
507
505
502
499
501
498
499
499
500
500
501
504
505
504
505
507
507
504
502
501
503
502
499
498
496
495
495
494
492
490
488
488
486
485
487
486
484
481
481
482
480
482
483
485
485
486
487
488
491
492
494
496
498
497
495
494
494
492
490
491
489
487
484
481
479
477
476
479
484
488
487
485
484
485
486
488
491
494
495
494
492
491
490
489
489
489
491
491
487
487
486
487
489
490
487
483
479
475
473
472
475
478
479
480
481
481
483
484
486
488
488
488
487
487
487
486
485
483
481
480
478
477
473
472
472
470
472
476
480
481
481
482
479
479
480
479
481
484
484
487
489
489
488
488
485
483
483
483
486
491
492
493
491
488
487
487
487
489
491
492
491
490
489
491
492
491
494
496
498
498
500
504
502
503
504
504
505
507
507
507
507
509
505
503
502
502
503
507
510
512
510
510
512
517
521
521
521
521
520
517
515
512
510
509
509
505
504
501
496
493
491
489
487
483
482
480
480
484
486
487
489
492
494
492
490
488
487
485
481
478
475
471
469
469
471
473
476
473
471
472
474
477
479
478
475
473
473
473
474
476
475
473
473
474
474
472
471
471
470
471
468
469
471
472
472
472
472
472
475
478
481
487
492
499
503
505
506
505
503
500
495
492
491
494
496
497
501
499
496
494
491
488
487
487
486
485
484
483
483
483
481
480
476
474
473
473
473
473
474
478
478
480
483
489
499
512
522
535
546
553
557
558
556
551
546
540
533
523
508
491
479
472
465
456
451
451
452
454
460
468
475
480
487
496
509
524
543
565
587
609
631
652
670
689
706
720
732
738
745
754
752
738
721
703
683
661
637
609
575
536
499
471
451
438
431
425
418
411
405
401
399
400
402
407
414
423
432
439
444
450
455
460
464
468
473
477
482
485
488
489
487
484
480
476
474
475
478
477
476
476
478
482
486
487
488
487
488
487
487
489
491
491
487
483
481
478
478
479
482
487
492
495
500
499
498
497
497
497
503
504
507
504
495
487
483
487
487
483
475
468
466
471
487
499
499
497
494
488
483
478
470
477
487
494
503
508
508
505
502
492
485
478
472
467
467
470
479
487
492
493
492
494
494
494
485
476
478
482
481
482
477
475
478
480
481
483
486
487
489
487
488
490
498
504
507
508
508
511
512
512
511
510
508
511
510
510
513
514
516
517
521
525
524
528
529
531
530
530
536
537
541
542
543
545
549
546
545
545
544
543
541
537
534
532
532
533
533
536
537
539
542
543
546
547
547
543
539
534
531
524
525
529
531
527
523
518
515
521
529
531
539
537
536
537
536
535
534
533
530
528
523
526
525
526
529
536
540
537
535
532
526
524
523
525
524
527
532
532
531
529
526
523
523
521
520
519
516
516
517
519
517
515
512
512
510
512
515
517
521
523
522
525
519
511
508
505
505
505
505
507
508
510
512
515
515
512
512
511
508
503
499
499
495
494
493
495
496
494
489
492
490
487
485
480
485
489
489
487
487
482
476
477
476
471
467
464
464
466
464
465
465
467
466
464
461
457
454
451
450
452
455
458
462
462
457
451
447
441
437
436
435
435
434
432
427
425
423
421
420
421
422
425
425
428
435
440
446
451
455
457
457
457
457
461
465
466
469
470
470
472
478
477
476
476
476
478
478
482
484
484
482
489
496
497
497
495
496
498
499
499
497
497
500
503
503
499
499
502
505
508
514
520
524
524
523
519
516
517
519
521
524
526
524
523
523
523
523
522
526
523
521
521
520
521
525
526
524
517
514
512
515
514
516
516
515
514
512
505
497
492
494
489
485
480
482
482
479
475
470
468
466
465
468
472
470
465
462
460
460
458
455
455
451
448
448
452
456
454
455
456
456
455
458
459
456
454
453
452
452
451
451
451
451
453
454
455
454
451
453
455
456
455
458
459
459
462
465
463
462
464
467
473
477
476
475
469
466
466
464
461
461
464
467
470
472
478
480
478
479
480
482
487
489
492
495
495
501
505
508
508
507
510
516
520
515
507
506
510
512
513
512
512
511
504
502
504
506
505
505
502
500
499
492
483
471
461
459
459
461
463
464
468
473
483
487
489
490
492
497
500
502
504
505
505
505
507
508
511
515
519
523
524
526
528
530
532
534
534
532
532
532
531
534
540
537
534
538
535
537
534
535
535
536
538
540
544
552
556
556
558
558
560
558
558
556
552
552
548
545
543
541
537
538
539
536
537
536
537
537
532
527
526
523
519
516
513
518
524
530
533
535
532
530
525
522
523
524
529
535
538
537
541
539
535
529
530
531
532
530
529
528
527
528
527
524
526
523
523
524
524
525
524
523
521
521
519
518
521
523
524
522
520
521
520
520
521
521
521
524
533
538
543
547
555
565
579
593
608
623
638
654
670
684
700
713
722
734
751
755
758
760
755
745
732
715
694
672
649
621
588
552
515
484
464
448
440
435
431
428
423
421
422
423
425
430
434
440
444
450
455
462
467
471
476
480
482
487
486
488
492
496
500
499
500
502
502
503
504
504
505
506
504
505
505
505
506
507
506
505
506
507
508
509
510
510
507
507
507
507
508
509
511
513
515
517
519
520
520
520
521
521
522
521
521
522
521
521
520
519
518
518
518
518
517
516
514
513
512
512
510
508
507
507
509
512
514
517
518
518
518
516
516
517
518
518
518
518
518
518
517
518
518
518
518
515
514
513
511
509
508
507
507
507
507
507
506
506
506
507
508
511
513
516
519
520
520
521
522
523
523
523
524
525
526
526
526
527
527
527
527
525
524
522
520
520
520
522
522
524
526
527
527
525
526
526
524
524
526
527
530
532
535
537
540
543
545
547
547
548
548
548
549
549
549
549
548
548
547
547
548
547
549
548
548
548
548
548
548
549
548
547
547
547
547
546
546
547
547
547
547
547
548
548
549
549
548
548
547
547
546
545
546
545
545
544
544
544
544
543
542
541
540
539
538
536
535
534
532
531
531
531
530
529
528
527
526
526
524
524
523
522
520
519
517
517
515
513
511
509
507
505
504
502
499
497
494
493
491
490
488
487
486
484
483
482
480
478
476
474
472
470
469
468
467
466
465
465
465
465
465
464
464
463
463
463
463
462
461
460
460
460
460
459
459
458
456
455
455
454
455
455
455
454
454
452
452
451
451
451
452
453
454
454
453
453
453
453
452
452
452
452
452
453
454
455
456
457
459
461
463
464
466
467
468
470
471
472
473
475
478
480
482
483
484
486
486
487
487
487
488
488
488
488
488
488
488
489
491
490
490
490
491
491
492
493
494
496
497
498
499
500
502
503
504
504
505
508
509
511
511
513
514
514
515
515
514
513
512
512
512
512
512
512
513
514
513
514
514
515
515
513
513
512
510
510
508
508
508
508
508
507
507
507
508
509
509
508
508
508
508
508
509
508
509
509
508
508
508
507
506
505
506
506
507
508
508
508
508
508
509
510
511
511
511
511
511
512
511
511
511
511
512
512
512
511
510
510
508
506
505
504
504
504
504
504
502
502
500
499
499
499
500
500
499
498
497
496
495
493
492
492
492
493
494
495
495
496
496
497
497
497
497
497
496
496
495
496
496
496
497
496
497
497
497
497
497
496
496
496
496
495
495
496
496
497
498
501
502
503
504
504
506
505
506
507
507
507
506
507
508
507
507
506
505
504
504
503
503
503
502
502
503
502
502
503
502
503
504
504
506
507
509
510
510
509
507
507
506
504
504
502
501
499
498
497
496
496
494
492
492
488
487
485
485
486
486
487
488
489
488
488
488
488
489
489
490
491
491
492
492
494
497
498
500
504
505
505
504
503
503
502
502
500
499
499
499
499
499
499
501
502
503
503
503
502
502
500
496
492
488
485
484
484
487
493
500
510
519
529
538
550
564
579
597
617
639
662
686
708
730
750
771
791
807
818
822
823
815
803
783
753
721
685
647
603
553
502
455
416
388
372
365
363
365
368
370
373
379
384
388
392
396
399
404
409
414
420
425
432
437
441
446
450
455
461
467
472
476
479
480
482
484
487
489
490
491
492
492
493
494
496
496
497
500
500
500
498
496
495
495
495
496
497
499
499
501
503
503
504
504
505
507
508
509
510
511
513
515
514
512
511
510
510
510
510
511
513
512
512
512
512
513
513
513
513
512
511
509
508
504
499
496
494
495
497
500
502
504
507
510
511
512
514
516
518
519
519
516
515
516
516
517
519
521
524
523
524
525
526
527
526
527
525
524
525
525
526
526
527
527
526
526
525
526
527
527
527
528
529
529
530
531
530
530
532
534
537
539
540
539
538
537
537
537
537
538
540
541
541
542
543
544
545
545
543
543
543
543
545
545
546
546
547
547
548
547
548
549
551
553
554
555
556
557
557
557
558
558
559
559
558
559
559
559
560
561
561
561
560
558
557
558
557
556
556
553
551
550
550
550
550
551
552
554
554
553
551
548
544
542
539
536
531
529
529
529
531
533
536
536
536
537
536
536
536
535
535
532
529
526
522
518
514
511
509
508
508
509
508
508
507
505
502
502
498
493
490
486
482
479
475
473
471
468
467
465
464
464
464
464
464
463
462
462
460
459
458
457
457
455
452
451
451
452
452
452
454
455
455
455
453
452
450
450
449
448
448
448
448
449
450
451
451
450
450
449
449
448
447
448
447
446
446
445
446
445
446
446
448
451
454
455
456
458
458
459
460
461
462
462
462
463
464
464
465
464
463
463
463
462
462
462
462
463
464
466
467
467
466
463
462
462
462
463
465
467
470
472
475
478
480
482
484
485
486
486
486
486
486
486
485
484
484
484
484
484
486
485
486
487
489
491
492
492
492
491
489
488
488
487
487
489
490
490
490
489
490
490
491
492
493
496
497
496
496
496
496
496
496
495
493
492
490
488
488
488
489
489
490
491
492
494
494
494
495
495
497
497
497
497
496
496
495
496
497
497
497
497
496
496
496
495
494
493
491
490
489
487
486
485
485
484
483
483
486
487
490
493
495
496
496
497
497
498
498
497
497
497
498
498
496
496
495
495
494
494
495
495
495
495
495
495
495
495
495
494
495
495
495
494
494
495
496
497
499
499
499
499
499
499
499
499
499
500
500
500
502
500
499
499
499
500
500
500
499
499
500
500
503
505
508
510
512
512
513
514
514
515
515
517
518
519
519
519
519
519
518
517
516
514
512
512
509
506
505
509
510
511
511
511
512
512
512
510
509
508
510
511
512
513
513
513
514
514
515
515
514
513
513
512
511
510
508
505
503
501
502
503
504
504
504
505
506
508
510
508
508
508
509
508
508
508
507
507
508
507
507
508
508
507
505
505
507
508
510
511
511
511
510
510
510
511
511
510
508
506
505
505
507
508
513
519
527
536
543
551
562
574
590
607
627
648
668
690
710
728
747
763
780
794
803
811
813
812
805
792
772
748
719
687
649
609
560
513
475
445
425
413
405
399
394
390
390
391
393
396
401
407
412
418
424
429
434
438
441
444
449
453
457
461
464
468
470
474
477
478
479
479
480
481
481
482
481
482
483
484
486
486
487
487
487
489
491
492
492
492
493
496
497
499
499
500
498
495
491
488
485
484
485
486
486
486
485
484
482
482
483
485
486
489
493
496
496
497
498
499
499
499
499
498
497
498
498
496
496
496
496
496
498
499
501
503
504
504
504
504
504
505
504
503
501
501
500
501
502
504
505
507
508
509
509
511
511
511
512
512
511
511
511
511
512
514
514
514
514
514
513
511
512
515
517
518
518
519
519
519
522
524
526
529
530
532
534
535
537
536
538
539
539
540
539
540
539
539
539
539
540
541
542
542
543
544
545
546
547
548
550
549
548
548
550
551
553
553
553
553
555
556
556
556
555
556
558
558
560
559
558
557
558
558
559
562
563
565
566
566
565
563
563
565
566
566
567
567
567
568
570
568
568
567
568
568
568
568
566
566
567
565
563
563
562
561
560
561
561
559
558
556
554
551
549
546
543
542
540
539
537
535
532
530
528
526
523
520
520
518
516
514
511
508
504
501
499
498
496
494
492
489
487
484
481
480
480
482
483
482
481
479
477
476
474
474
474
474
473
472
472
472
471
471
469
467
465
464
464
465
464
463
463
463
462
461
461
461
462
462
462
462
462
461
459
459
459
459
460
459
459
460
461
461
460
462
462
462
461
460
465
468
468
470
470
471
470
469
468
467
467
467
468
469
468
468
470
471
470
470
470
471
470
472
472
475
476
478
479
480
480
479
481
482
482
483
484
485
487
487
487
487
488
488
489
489
488
489
489
490
490
491
489
488
487
488
487
487
488
487
488
489
489
491
492
492
492
492
491
491
491
491
491
490
489
492
492
494
496
496
496
497
497
497
496
496
496
497
498
499
501
502
502
503
504
505
504
504
503
503
504
504
503
501
501
499
498
497
496
497
499
499
498
498
497
497
499
499
498
499
501
499
499
500
501
501
501
501
500
499
499
498
498
497
497
498
499
499
499
499
499
499
499
498
498
497
497
499
497
497
499
500
501
500
500
501
502
502
501
499
500
500
499
499
498
498
498
497
498
500
503
504
504
504
504
504
503
501
499
498
497
496
498
499
499
500
501
502
503
502
503
501
501
502
504
504
504
504
505
504
505
505
507
509
510
509
509
511
512
515
516
517
516
517
517
516
514
512
511
510
510
509
508
507
506
507
507
508
510
510
512
511
511
512
512
514
514
516
517
518
520
521
520
519
517
513
508
505
504
503
504
504
504
504
504
505
505
504
503
503
502
502
500
501
500
501
500
499
499
498
499
499
499
499
500
501
501
502
502
503
504
504
503
503
503
504
504
504
504
504
505
505
505
506
506
507
507
506
506
505
504
503
501
499
497
498
500
504
509
515
523
529
538
548
560
575
590
606
624
643
663
681
700
716
731
746
759
771
779
784
787
783
775
762
743
722
696
667
634
595
551
508
473
446
427
415
406
399
392
388
386
385
388
392
397
402
408
414
419
425
430
435
439
443
446
449
452
455
457
459
462
463
467
469
471
472
473
474
475
476
476
476
476
476
476
475
473
472
472
472
472
472
473
475
476
477
478
479
479
479
480
481
483
485
487
489
491
493
495
496
497
498
499
499
499
499
499
498
497
496
496
496
497
497
497
499
498
499
501
502
502
503
504
505
505
506
505
507
507
507
508
510
510
511
511
512
512
513
513
512
513
513
513
512
512
513
513
515
516
518
519
520
520
521
521
523
524
525
525
524
524
524
525
526
526
527
527
527
527
526
527
527
528
530
531
532
531
531
530
531
531
531
531
531
530
531
530
530
530
528
528
527
527
527
528
529
529
529
529
530
533
536
540
543
545
546
547
547
546
545
545
543
543
543
546
548
549
551
551
552
552
551
551
553
555
557
559
562
563
564
565
566
567
567
567
567
567
567
567
567
567
566
564
563
563
562
560
558
556
554
552
552
551
551
551
551
550
549
548
547
547
547
547
546
545
544
542
539
537
536
535
534
533
532
530
528
525
523
522
521
521
519
518
515
511
508
504
500
496
493
491
488
485
483
481
480
478
476
475
472
471
469
468
468
467
467
466
465
463
463
464
464
463
463
462
460
459
456
455
454
454
455
455
456
456
456
457
458
459
459
459
457
455
455
455
458
460
461
460
456
454
451
448
447
446
445
446
447
449
450
451
451
453
455
452
450
449
449
449
445
440
437
440
445
450
453
454
451
453
452
450
451
453
457
460
467
472
473
466
456
454
453
461
469
473
473
471
471
474
472
460
460
460
469
476
477
473
471
470
466
461
461
465
478
480
477
481
471
471
475
476
476
482
490
496
492
488
489
495
500
502
503
504
504
504
504
503
503
507
508
511
512
511
508
505
503
502
499
497
497
500
503
503
502
502
502
504
503
504
502
502
499
496
494
494
494
491
488
492
494
495
494
495
496
497
497
494
494
494
494
495
496
498
501
501
503
505
504
504
503
503
501
498
495
492
491
490
492
495
495
499
501
503
507
509
512
515
518
519
519
521
519
517
515
513
513
513
515
518
519
523
524
524
525
525
526
524
523
524
524
524
523
525
524
522
523
522
522
521
522
521
521
520
520
519
519
518
516
512
510
508
507
507
507
507
510
511
510
509
508
508
507
507
507
508
510
511
513
515
516
519
520
523
527
529
531
532
534
535
536
535
533
532
531
531
534
535
536
536
536
535
535
534
532
529
528
526
524
520
518
515
513
512
512
512
512
512
512
512
511
512
512
512
512
512
512
512
512
511
509
508
508
507
507
507
506
507
507
506
505
504
504
504
504
503
504
505
505
507
506
508
510
510
510
509
509
508
505
505
504
503
504
504
505
505
503
500
499
497
496
498
500
503
507
512
519
526
535
548
563
579
594
613
633
654
674
695
716
735
754
774
793
807
817
826
827
822
809
790
764
733
697
656
608
554
504
464
435
415
406
401
396
393
390
388
387
387
389
392
397
402
408
415
421
426
431
435
438
440
442
446
449
452
455
459
462
464
467
469
470
472
474
475
475
473
472
472
473
475
475
476
476
476
476
475
475
473
473
473
471
468
467
467
468
470
473
474
477
479
479
479
482
483
483
483
484
483
482
480
480
480
481
482
484
485
486
485
486
486
485
486
486
487
489
491
493
494
497
500
500
502
502
503
503
501
502
501
500
502
502
501
502
503
505
502
501
502
503
503
504
504
504
506
505
503
503
503
504
507
508
508
512
517
519
522
526
528
531
532
531
530
526
521
517
512
511
511
513
513
512
513
514
515
516
518
519
519
520
520
523
526
528
531
535
536
539
540
542
543
545
547
547
546
545
546
548
547
548
546
547
551
553
555
556
555
552
551
552
555
559
563
564
562
560
557
556
552
548
546
543
543
544
547
549
551
554
556
557
557
556
556
556
556
555
554
554
554
555
557
560
562
564
566
566
565
562
559
557
554
551
548
545
543
540
538
537
537
537
536
536
536
536
536
536
534
533
531
529
527
526
524
522
519
516
512
510
507
504
502
499
499
499
498
498
499
499
498
498
497
495
494
492
491
490
489
488
485
482
480
476
475
473
472
471
470
469
467
465
464
462
459
455
452
450
448
448
448
449
450
452
454
455
455
454
452
451
450
449
448
446
446
446
447
449
451
454
453
452
452
452
452
453
453
453
454
455
455
455
455
458
460
460
460
460
459
460
460
460
461
462
463
463
464
465
466
467
467
467
467
467
467
466
465
464
463
463
463
463
463
464
465
465
465
467
467
467
467
468
470
470
471
471
471
472
471
471
470
470
471
470
468
467
467
469
470
469
470
471
472
473
474
474
474
475
475
477
478
479
480
480
481
481
481
481
481
483
485
488
489
489
489
491
491
491
491
490
490
489
489
487
484
481
479
479
480
481
482
484
487
491
493
493
494
494
496
496
497
498
498
499
500
499
498
497
497
497
496
494
493
492
492
491
491
492
493
495
496
498
499
501
502
501
500
500
499
497
495
493
492
491
491
488
488
488
488
487
488
491
494
497
499
500
501
502
502
502
503
503
502
502
503
502
502
501
499
500
502
504
506
508
508
508
508
508
507
508
508
508
506
504
504
504
504
504
506
509
510
510
509
506
504
503
503
504
503
504
503
502
500
499
500
502
505
508
508
510
511
512
513
515
517
519
521
521
520
522
521
519
516
515
513
512
510
505
499
496
494
491
489
487
483
481
479
477
477
480
483
488
494
498
503
508
512
514
516
519
520
520
519
518
516
514
512
511
509
508
508
508
507
504
503
502
502
502
502
501
497
490
482
472
465
462
461
463
466
470
473
475
476
475
477
481
487
490
494
498
501
501
500
500
500
498
496
492
489
485
478
474
472
471
474
478
484
489
494
496
498
498
497
496
496
493
491
490
491
495
499
504
507
510
511
512
515
515
516
517
518
519
518
517
516
512
513
516
516
518
517
515
512
505
502
499
499
501
503
504
505
504
504
504
505
504
503
502
501
499
498
497
496
495
496
499
500
501
501
501
501
502
502
502
503
504
504
505
505
505
505
505
504
505
505
505
504
504
505
506
506
508
508
508
508
508
510
510
510
510
510
510
510
509
510
511
511
511
510
509
509
510
512
514
518
519
520
523
530
539
551
568
587
606
627
648
669
690
710
728
748
769
791
811
831
846
860
866
867
866
857
839
815
783
748
706
655
595
540
493
456
431
412
398
385
375
370
369
373
379
386
395
404
411
418
426
434
441
449
454
459
462
463
463
463
463
462
461
460
460
460
461
465
469
472
475
480
484
485
486
487
490
494
496
495
490
484
479
474
471
471
472
475
475
477
478
481
487
492
496
501
505
507
507
507
504
502
501
500
499
495
492
490
487
487
487
490
494
497
502
506
509
509
508
508
507
504
499
493
491
491
490
490
492
496
497
499
501
508
515
520
525
526
527
527
526
525
525
521
516
513
512
512
513
514
516
519
523
524
524
524
524
523
524
524
524
524
524
521
519
519
519
520
521
523
524
526
527
527
527
527
527
527
526
526
526
524
524
524
526
527
529
531
533
534
535
538
543
549
554
556
556
553
548
545
544
544
545
547
550
551
551
552
553
552
551
551
552
556
559
563
564
564
564
564
563
561
559
556
552
551
553
556
558
562
565
568
569
569
571
572
572
571
569
569
568
568
568
568
568
567
565
566
566
566
566
566
568
570
572
572
572
570
569
568
566
567
568
568
569
567
565
564
563
562
560
559
557
555
551
546
541
537
536
534
531
526
520
517
514
511
508
508
508
508
508
507
509
512
516
519
518
514
513
510
505
500
496
496
495
492
487
484
481
479
476
476
476
475
475
476
477
478
479
480
479
477
475
468
461
455
451
450
451
451
451
450
450
449
450
451
454
458
461
463
464
463
463
463
464
463
463
464
463
463
462
462
460
456
454
452
451
451
453
455
456
458
458
458
458
458
457
457
459
461
464
467
470
471
471
470
469
466
463
462
460
460
459
458
458
457
457
457
459
462
466
470
473
478
482
484
484
484
482
480
476
473
473
474
476
477
478
478
478
480
483
485
488
491
490
487
486
484
485
483
478
474
472
473
476
478
481
483
485
487
488
490
492
493
493
493
493
493
493
493
491
489
488
486
486
485
484
480
477
477
478
479
481
483
484
486
488
488
487
488
490
492
495
496
496
494
493
492
492
492
491
491
491
491
492
490
492
495
496
496
496
496
498
497
497
497
498
499
500
501
501
500
500
499
499
499
499
499
499
498
497
498
500
499
500
501
502
500
497
495
491
491
492
494
496
499
502
505
509
512
513
515
516
516
515
510
503
499
497
497
497
497
495
491
487
485
486
489
492
496
500
502
503
503
502
501
502
501
501
500
499
497
496
497
499
500
501
503
504
507
509
513
514
513
511
507
500
495
492
491
491
492
492
494
494
497
502
508
513
517
519
520
519
519
518
515
512
511
508
505
504
503
502
501
501
500
499
498
499
499
500
501
503
504
507
508
509
511
511
512
512
512
512
512
514
513
513
512
510
508
509
510
511
511
512
511
511
508
507
508
510
512
512
512
513
514
515
516
517
518
517
515
515
516
517
516
516
516
515
515
515
515
514
514
515
517
518
519
519
520
522
523
524
524
524
525
525
524
520
515
513
513
513
514
516
518
519
519
519
520
518
518
518
518
518
515
512
509
505
504
504
505
506
507
508
508
508
509
508
508
506
508
511
515
520
524
527
530
532
533
534
531
526
520
513
510
511
512
512
512
512
512
513
514
514
513
512
512
511
510
508
506
504
502
501
500
502
503
505
506
506
507
507
508
507
507
507
506
506
507
508
510
512
514
515
515
515
513
512
512
511
510
509
508
507
505
506
507
507
508
508
508
507
508
509
510
511
512
512
512
512
512
511
510
508
505
505
507
511
514
515
516
516
516
515
515
516
516
518
519
520
519
519
516
515
515
514
515
515
514
512
510
509
508
508
508
507
505
504
502
499
496
494
494
494
493
492
492
491
490
491
492
492
493
494
494
496
497
498
498
498
499
499
499
499
500
499
499
499
497
497
496
496
496
496
498
500
502
505
505
506
507
507
508
508
508
507
505
504
500
496
492
488
487
487
489
495
500
508
518
527
540
553
569
587
607
628
650
673
698
723
747
770
795
820
845
867
885
899
906
903
888
862
827
790
750
704
652
591
530
480
440
413
396
387
379
374
369
367
367
368
371
375
380
387
395
402
410
417
423
427
431
435
438
442
446
451
456
460
463
464
465
464
461
459
458
458
458
458
459
459
460
462
463
464
465
468
472
476
480
483
486
487
487
486
483
481
482
483
483
483
483
483
482
482
480
478
478
479
482
483
484
486
487
488
488
488
488
489
489
489
491
490
488
487
487
488
492
497
501
504
504
504
504
504
504
505
506
505
505
505
504
504
505
506
505
504
503
504
506
507
507
506
504
504
503
504
506
508
508
507
507
506
505
505
504
503
502
500
497
496
497
499
502
504
506
508
511
512
514
515
517
518
517
515
514
513
515
515
518
521
524
527
529
530
529
528
528
528
529
529
530
531
531
531
531
532
534
535
537
539
539
539
540
542
542
543
543
542
543
543
542
540
540
541
542
542
542
540
539
538
536
534
532
531
533
536
539
541
543
543
543
544
544
545
546
547
548
548
547
547
545
543
541
540
538
537
537
537
538
539
540
542
541
542
542
543
544
545
548
551
555
557
557
556
555
553
550
545
540
533
529
527
527
528
529
530
529
528
526
522
518
513
510
505
502
496
491
486
484
483
482
481
480
478
476
475
472
471
471
471
470
470
469
470
471
471
471
471
470
467
467
466
465
465
464
463
462
462
463
464
466
467
468
470
469
469
467
463
460
456
453
452
452
454
455
455
454
450
444
440
440
441
443
446
451
455
458
461
463
463
463
463
463
462
462
462
464
464
463
461
460
460
459
456
454
453
453
454
455
457
459
460
460
460
459
458
458
458
459
461
463
465
466
467
467
469
470
470
472
472
474
474
474
475
477
478
478
479
479
479
480
480
482
484
486
487
488
488
488
487
487
487
486
486
485
484
483
485
487
490
492
494
495
496
498
500
502
503
499
492
484
480
476
478
480
483
485
488
489
487
487
485
486
486
486
486
486
487
487
487
487
487
490
493
495
496
499
499
499
499
499
499
499
498
497
498
499
499
502
502
502
501
499
499
499
497
496
496
496
497
500
503
503
503
500
498
499
500
500
499
498
497
495
494
493
494
495
496
498
499
502
504
504
503
503
504
502
501
499
496
495
496
499
503
505
505
504
502
498
493
489
487
486
483
482
480
481
484
489
494
499
502
504
507
508
510
512
511
510
505
499
491
485
481
480
480
481
481
483
485
486
486
485
485
486
488
492
494
497
500
502
503
504
505
505
506
507
507
506
506
504
500
498
499
500
504
509
511
512
510
508
507
505
505
505
505
503
498
495
494
493
491
491
491
492
492
494
496
498
500
502
502
503
503
502
500
498
498
499
500
503
505
507
508
506
504
501
502
504
505
506
507
509
511
510
508
507
507
507
508
508
507
508
510
512
511
510
510
511
512
515
517
515
513
511
508
505
504
500
498
497
498
499
501
504
507
509
510
511
513
513
515
518
520
521
521
521
523
521
519
519
520
522
524
526
527
528
526
521
516
512
510
510
508
505
504
504
505
510
515
521
526
530
532
534
536
540
541
540
537
530
520
514
511
508
506
505
502
503
504
508
512
515
519
522
525
526
526
526
520
515
511
509
509
508
506
502
499
499
501
505
511
515
520
524
527
529
528
520
509
500
497
497
500
503
507
510
514
518
521
523
521
519
516
515
517
519
518
520
523
528
537
551
570
591
615
640
669
696
723
748
775
801
823
847
871
890
908
922
930
933
929
914
891
859
821
780
729
667
601
543
494
455
429
411
396
384
376
371
371
376
384
393
398
403
408
412
415
423
430
436
442
449
457
461
463
463
460
455
453
453
454
452
449
450
449
449
452
457
459
461
461
460
461
462
462
464
464
463
463
463
464
466
470
474
478
482
486
487
488
487
489
491
490
486
480
476
477
480
483
486
489
491
492
484
477
472
468
467
467
468
469
473
480
487
492
497
504
510
512
512
508
502
496
487
482
483
486
486
486
487
489
493
495
495
491
489
491
494
495
497
496
492
488
488
493
496
497
499
500
502
502
504
506
507
508
506
505
506
508
510
510
512
514
515
515
516
516
518
519
521
521
520
519
519
518
515
514
513
514
515
518
522
525
528
535
540
543
543
543
539
535
533
532
532
534
535
537
536
533
533
534
535
535
536
536
536
540
542
543
545
545
545
545
547
551
553
554
556
556
558
558
559
560
563
568
570
572
573
575
575
575
577
578
575
570
565
564
564
565
568
573
575
575
574
574
573
572
571
574
580
583
585
588
588
587
585
584
583
581
572
559
545
534
526
527
531
541
551
556
555
554
553
553
552
553
553
551
546
544
540
536
529
523
516
512
508
508
509
510
508
503
499
493
487
482
479
477
478
478
477
474
472
469
467
463
459
458
458
456
455
455
456
454
450
445
444
445
448
447
445
444
443
442
444
443
443
446
449
452
454
454
452
448
442
435
428
425
426
429
433
437
440
443
444
445
446
448
450
450
451
452
451
448
445
440
438
437
439
440
440
440
441
443
446
447
449
453
457
460
462
465
466
466
465
463
459
454
449
445
447
451
453
456
459
462
465
468
472
474
476
475
473
476
479
480
481
486
488
487
486
480
476
472
467
465
465
468
472
476
478
480
481
482
483
484
486
486
487
487
488
489
491
492
492
491
488
489
487
487
489
494
499
506
513
518
519
517
515
512
512
513
513
511
505
502
502
504
504
504
502
500
498
497
497
498
500
503
505
508
510
512
514
515
516
515
512
512
512
513
516
518
518
516
512
507
501
498
499
500
502
504
506
508
505
503
499
494
493
493
497
499
501
503
504
506
506
505
504
505
504
503
505
506
508
509
509
509
509
508
505
505
506
505
503
501
498
497
498
497
498
499
503
508
510
510
509
504
499
497
496
496
496
493
487
484
483
486
487
491
496
503
505
507
508
510
509
508
508
508
506
505
507
512
515
519
521
518
512
511
507
504
499
492
488
487
486
486
487
487
489
491
491
492
493
494
496
497
501
505
511
515
519
524
525
524
522
521
516
512
508
505
500
497
496
497
499
503
507
511
511
511
510
511
512
511
508
505
503
501
499
496
499
501
501
501
501
505
509
512
515
516
515
514
513
513
512
512
513
512
510
510
509
504
496
488
485
485
488
492
494
496
497
499
500
502
502
499
494
489
488
489
492
496
497
498
497
495
493
492
491
492
493
496
499
501
503
504
507
509
510
506
501
499
497
497
498
501
503
502
499
496
494
494
495
497
499
502
507
512
516
522
527
534
539
540
537
533
531
527
522
519
520
523
526
527
529
529
529
529
529
529
529
531
535
540
543
546
549
551
554
558
562
566
567
566
562
556
551
550
547
539
529
524
522
518
511
507
510
513
518
523
528
533
537
539
536
528
516
511
510
511
512
513
514
512
510
510
513
519
527
539
549
560
567
572
574
574
569
554
537
524
515
516
523
529
531
528
519
512
514
523
533
541
550
560
572
584
594
601
609
619
641
668
694
716
739
767
798
827
853
878
896
912
921
922
917
904
885
858
823
782
736
681
614
549
493
448
417
397
384
374
368
364
364
367
374
383
392
401
411
418
420
417
416
416
420
425
431
436
441
448
456
463
465
465
462
460
455
452
451
449
447
447
446
445
446
444
446
451
452
452
454
456
455
449
440
436
437
441
445
449
452
455
457
458
459
460
460
461
463
465
469
475
480
484
489
492
493
491
486
480
472
462
458
460
464
471
477
482
488
494
499
502
499
494
490
486
483
483
481
481
483
484
487
491
494
499
504
510
516
518
516
517
519
522
518
507
498
489
478
468
464
465
470
475
478
482
487
491
494
497
499
502
503
504
504
503
502
502
501
502
506
509
512
515
519
521
524
526
529
531
531
533
535
537
540
542
539
532
519
505
499
497
499
504
509
514
518
520
522
524
524
524
524
527
532
539
544
548
553
555
556
557
553
548
542
538
538
538
540
542
544
547
550
551
553
556
558
562
565
568
570
573
575
577
579
577
571
567
566
566
567
567
564
559
556
556
560
564
569
573
577
581
585
591
594
597
599
598
597
596
591
579
562
549
543
539
536
534
535
537
539
543
546
546
545
544
543
542
540
539
538
536
534
532
529
527
526
523
519
515
512
510
507
504
504
504
505
506
502
499
499
500
500
498
495
490
482
476
473
472
472
475
477
478
478
472
468
463
459
457
457
456
457
458
457
456
453
449
446
444
445
446
448
451
454
456
458
459
458
455
450
448
449
451
452
452
452
451
451
451
451
453
456
459
462
465
466
467
467
467
462
454
446
439
435
435
436
438
440
441
444
445
447
447
448
448
450
453
456
459
463
466
470
473
475
474
471
467
465
463
459
457
457
458
458
460
463
465
468
471
473
474
472
470
467
468
468
469
470
470
470
472
475
476
479
481
485
488
491
493
494
495
495
492
487
487
487
488
489
489
489
490
492
493
495
496
496
493
488
486
484
486
484
485
487
491
495
497
500
504
504
501
499
499
498
498
497
496
494
495
497
501
504
505
506
508
507
504
502
500
500
500
501
504
504
503
501
499
497
495
494
492
493
493
492
492
491
492
492
493
493
494
494
496
497
497
497
498
497
497
497
497
498
497
496
495
495
495
494
495
496
498
499
500
502
503
503
503
504
505
507
508
509
509
508
508
508
507
505
503
500
499
500
499
500
501
503
504
505
504
504
504
505
508
512
516
519
520
520
518
515
512
509
507
504
502
502
504
505
507
508
508
508
507
505
503
502
503
504
503
502
499
499
499
500
502
503
504
505
508
510
512
512
512
513
514
515
515
515
515
514
513
515
515
515
514
513
513
516
519
522
525
527
531
533
534
534
532
527
520
512
505
500
499
500
502
504
505
505
505
506
510
515
518
520
519
519
519
520
522
522
521
520
518
516
516
518
519
523
526
528
528
529
531
532
529
523
517
513
511
508
508
508
509
508
507
507
505
504
505
507
508
510
511
513
516
518
519
519
518
515
513
512
512
513
515
514
513
512
510
508
506
502
499
499
499
499
500
502
504
507
509
510
512
513
515
516
515
514
513
512
511
512
511
512
512
512
512
511
510
507
504
500
499
499
500
505
510
516
524
532
542
554
568
583
601
623
647
671
697
723
749
775
798
820
845
865
880
891
898
897
891
874
848
816
782
743
696
642
580
521
473
437
413
396
385
376
367
359
355
356
360
365
370
376
383
390
399
408
415
422
429
436
442
446
450
455
460
466
472
476
476
476
476
476
474
471
472
473
473
474
475
475
475
475
475
476
477
479
481
482
484
486
487
489
491
492
492
492
493
494
494
494
495
495
496
496
496
495
494
494
494
494
496
499
501
504
505
507
508
510
511
509
505
500
494
491
491
493
494
495
496
495
495
496
496
496
497
498
498
499
499
499
500
499
501
503
504
504
505
505
505
507
509
512
513
515
516
516
516
514
512
509
507
506
507
509
510
512
513
515
515
515
515
517
518
520
521
521
521
524
524
526
526
526
527
529
531
532
533
536
537
539
541
542
543
540
536
532
528
526
527
528
531
532
533
534
536
537
539
540
542
543
544
544
543
544
544
543
543
544
546
547
547
548
550
551
554
555
556
558
560
562
563
563
564
566
566
565
565
566
567
567
567
567
567
567
567
568
569
570
571
571
572
572
574
575
575
574
573
572
570
569
567
565
561
556
552
549
546
547
546
546
547
547
547
547
545
543
539
532
527
524
523
521
519
517
516
514
511
508
505
504
502
500
499
496
493
491
488
486
483
481
480
479
477
475
473
471
468
466
464
462
459
455
452
450
449
449
448
448
447
447
447
446
445
445
445
445
446
447
449
451
453
454
454
454
454
453
452
451
448
445
441
436
432
429
428
428
429
430
432
435
437
438
439
440
440
441
442
442
442
441
441
441
442
443
444
445
446
447
448
449
449
450
451
451
451
452
453
454
454
453
452
452
452
453
455
458
460
463
464
466
469
472
475
477
478
478
475
471
467
464
463
462
462
462
461
461
462
464
467
470
472
475
478
480
481
482
482
481
478
475
472
468
467
468
470
471
472
474
475
476
478
480
481
483
484
484
484
484
485
485
486
486
487
488
488
489
489
489
491
492
492
493
494
494
494
495
495
497
497
498
499
500
501
502
503
504
504
505
505
505
504
502
499
496
494
493
493
492
492
492
491
491
492
493
494
494
494
494
493
493
494
494
492
491
491
492
492
492
492
493
493
493
493
494
494
494
494
496
496
496
496
497
498
499
499
500
500
500
500
500
500
500
500
500
500
500
500
500
500
500
501
501
501
502
503
503
503
504
504
504
504
504
505
505
505
506
506
506
505
505
505
505
505
505
506
506
507
507
507
506
506
506
506
506
507
507
507
507
507
507
507
508
508
508
508
508
508
507
507
506
506
506
506
505
506
507
506
506
506
505
505
505
505
505
505
504
504
504
504
503
504
504
504
504
504
503
503
503
503
503
502
502
501
501
500
500
500
500
499
499
500
500
501
501
502
503
504
505
506
507
507
507
507
506
506
505
506
506
506
505
506
505
505
505
506
507
508
508
509
509
510
511
512
514
514
514
515
515
515
515
515
515
514
514
512
511
510
509
508
507
506
505
504
504
503
502
502
503
503
502
502
501
502
501
501
501
502
502
502
502
502
501
500
500
501
501
501
502
502
502
502
503
504
504
505
505
505
506
507
507
507
508
508
507
506
506
507
506
505
504
501
497
493
490
488
489
491
494
499
506
513
521
533
545
561
579
598
622
644
669
692
716
739
764
787
809
833
854
870
884
894
897
895
884
863
837
807
771
729
676
617
564
520
486
462
444
427
412
401
393
389
387
387
390
395
400
407
412
417
421
425
430
434
437
440
442
445
447
448
450
452
452
454
455
456
456
457
457
457
458
458
459
460
460
460
460
461
461
462
463
464
464
465
465
466
467
467
468
468
470
471
472
472
473
474
474
475
475
475
476
477
477
478
478
478
477
477
476
476
477
478
478
479
479
480
480
481
481
482
483
483
484
483
483
483
484
483
484
485
486
487
487
487
487
487
487
487
487
488
491
492
493
495
496
497
497
499
499
500
501
502
502
502
499
495
490
486
486
486
487
488
490
492
493
495
496
497
498
499
501
502
504
505
506
507
508
509
509
510
511
512
513
514
514
515
515
516
517
518
519
520
521
522
523
524
525
526
527
529
531
532
533
535
536
536
536
536
537
536
537
538
537
537
537
537
538
539
540
540
541
543
544
546
548
549
550
551
552
553
554
555
556
557
558
558
558
558
558
559
559
560
561
561
561
561
562
562
562
562
561
560
561
561
560
560
559
559
558
556
556
554
551
550
548
547
545
544
543
543
542
541
539
537
536
534
531
528
526
523
521
519
518
517
514
511
508
505
503
500
497
495
492
490
488
486
483
482
480
478
476
474
472
471
470
468
467
465
465
464
464
464
463
462
460
460
459
457
457
456
455
455
455
455
455
454
454
454
453
454
454
455
455
454
454
454
454
454
454
454
454
454
455
455
456
455
456
456
457
457
458
460
460
461
460
460
461
462
462
462
462
460
460
460
460
462
462
463
464
465
466
467
467
467
468
468
467
466
467
467
467
468
468
469
469
468
467
467
466
467
466
467
468
470
473
474
476
477
476
477
478
479
479
480
481
482
482
482
481
482
482
483
484
486
486
487
487
487
487
487
487
486
484
482
481
481
483
484
486
486
487
487
488
488
488
488
488
489
489
489
490
491
492
493
493
492
493
494
494
494
494
494
493
493
494
495
496
495
495
495
496
497
497
497
498
499
500
500
501
500
499
498
499
501
502
503
503
503
503
503
503
503
502
501
501
501
502
502
501
502
502
502
503
503
503
503
502
502
503
504
504
504
504
505
504
504
504
504
504
504
503
504
504
504
503
502
502
502
502
502
502
502
502
504
504
504
504
503
503
502
501
501
500
500
501
503
504
504
504
504
503
502
503
502
501
502
503
504
504
506
507
506
506
506
508
508
509
509
510
510
509
508
507
506
505
506
506
506
507
507
507
508
508
508
507
508
507
508
509
509
508
508
508
508
509
509
510
509
508
507
504
503
503
503
502
499
499
499
501
502
504
504
505
508
509
511
511
511
512
512
511
510
509
510
509
508
507
505
505
504
504
505
506
505
504
504
504
503
504
505
506
506
505
506
506
506
507
507
508
507
508
509
510
511
511
511
510
509
508
508
508
507
506
505
504
503
503
503
503
503
503
502
502
503
502
502
502
500
500
499
496
496
495
496
497
498
499
500
501
501
499
497
496
495
496
497
498
500
502
501
502
501
501
500
500
499
499
499
499
500
499
499
501
499
498
499
500
501
502
503
504
503
503
503
504
505
505
504
501
499
500
502
503
502
502
500
499
501
500
500
500
499
500
503
504
505
504
505
504
503
502
502
502
503
501
500
499
499
497
499
501
502
503
504
505
507
508
509
510
510
511
509
508
508
509
511
511
511
511
511
511
512
512
513
513
515
516
517
518
517
516
515
515
516
517
518
518
518
518
518
519
519
519
519
519
520
520
520
520
521
521
522
523
524
525
527
527
527
525
524
523
524
523
521
518
516
515
514
515
516
518
520
521
523
523
523
522
522
521
521
520
520
519
517
515
512
510
506
503
499
502
505
508
508
508
511
513
514
515
514
514
515
516
518
520
520
519
518
516
515
514
515
513
512
511
511
511
510
507
507
508
507
508
509
507
505
504
504
505
505
505
506
507
507
506
505
504
504
504
503
502
503
503
503
503
502
504
505
506
505
505
504
505
505
506
505
504
503
503
503
503
503
504
504
505
505
506
506
507
508
509
511
511
511
511
511
510
509
508
508
507
505
504
503
503
503
502
503
504
504
504
504
504
505
505
507
507
508
509
509
510
510
510
510
510
509
509
509
510
510
509
509
508
508
508
507
507
507
508
508
509
510
512
512
512
513
513
513
515
516
516
517
518
518
519
518
518
516
516
515
515
516
517
518
519
519
519
519
519
519
518
518
517
518
519
520
521
523
524
526
526
527
527
527
527
526
526
526
526
526
526
526
525
524
524
525
526
525
526
525
525
524
524
523
523
523
523
522
523
523
523
523
523
523
523
523
522
522
522
522
521
521
520
519
519
519
519
518
519
519
520
520
520
520
519
519
517
515
514
512
511
509
507
507
507
507
507
507
506
506
505
504
504
502
501
500
499
499
499
500
503
505
507
509
510
510
511
511
510
509
508
507
506
506
507
508
508
508
508
508
507
506
505
504
502
500
497
495
492
489
486
483
480
478
476
474
473
472
471
470
468
467
467
467
467
467
467
468
470
471
472
472
472
472
472
472
473
474
475
475
476
478
478
479
480
482
483
486
487
490
493
496
500
503
505
509
511
514
517
519
519
520
519
517
516
515
515
517
520
525
531
539
548
560
575
591
609
628
650
673
697
721
745
769
794
818
839
864
888
911
928
942
947
946
936
917
890
857
820
776
726
668
606
553
508
474
451
435
423
412
405
400
399
401
404
409
415
420
426
431
436
441
447
452
455
459
462
465
468
471
473
473
474
475
476
477
476
476
476
476
476
475
475
475
475
475
475
475
475
475
474
473
473
474
474
474
474
475
475
474
473
473
473
472
471
469
468
468
468
468
468
468
468
468
467
465
464
464
463
463
463
463
464
464
465
465
465
465
467
467
467
468
469
470
470
471
471
472
472
473
474
475
477
478
480
481
483
483
484
486
487
489
490
492
493
495
496
497
498
499
499
501
501
503
504
505
505
505
505
507
507
507
507
507
507
507
508
508
508
508
509
511
512
515
516
517
518
519
519
520
519
520
521
522
523
524
524
524
525
526
527
527
528
529
530
531
531
531
532
532
534
533
533
534
533
533
533
535
536
536
537
537
538
538
539
541
543
545
546
547
548
548
548
550
550
551
551
551
552
552
552
552
553
554
555
555
556
559
560
561
561
562
563
561
561
560
561
561
561
560
561
562
563
564
563
562
562
561
560
559
558
557
556
555
553
551
551
550
550
549
549
548
546
545
543
542
542
542
540
539
538
536
534
532
530
529
527
525
523
522
520
519
517
515
512
510
508
507
506
504
504
502
500
499
496
494
491
489
487
486
485
483
481
481
479
478
477
476
476
475
473
471
469
467
466
464
463
463
463
462
460
459
458
457
457
456
455
454
454
452
451
451
451
451
451
