569
614
605
579
534
382
434
444
464
484
439
399
415
428
472
625
600
577
553
543
567
614
616
577
543
383
423
438
468
489
451
404
412
431
475
614
595
577
551
547
566
611
608
588
544
380
420
438
471
482
453
406
413
432
469
611
598
576
555
547
568
612
603
588
547
384
426
440
466
481
446
408
409
423
469
617
594
580
552
553
566
616
605
582
551
376
418
441
467
479
439
409
416
432
463
620
601
579
561
553
556
613
610
581
555
381
418
443
465
483
449
417
417
427
460
613
595
578
551
544
568
614
607
579
558
379
421
447
467
478
443
409
408
427
465
612
600
582
564
547
565
611
607
583
546
384
420
446
468
486
451
406
417
431
456
607
598
584
551
555
556
608
616
594
561
384
417
433
469
491
448
407
412
428
462
612
605
576
555
550
560
605
616
584
555
386
424
438
462
476
455
409
413
433
468
613
591
571
561
550
555
609
617
588
552
383
423
433
462
494
460
412
411
431
455
611
596
573
557
551
564
609
627
589
556
382
423
438
466
483
452
407
416
428
461
617
598
582
553
549
564
606
607
592
564
386
425
436
460
487
456
404
411
427
466
606
599
578
563
551
560
610
616
581
560
383
423
445
456
483
456
402
419
427
461
604
599
582
560
551
570
607
615
591
561
382
420
434
461
484
452
408
409
422
449
606
605
582
554
553
560
611
611
587
560
387
422
443
467
486
449
404
415
425
459
611
606
578
559
543
564
610
611
589
556
391
420
437
471
479
457
404
411
427
461
603
595
579
554
549
567
609
618
588
566
384
424
433
467
480
458
414
415
421
458
608
603
577
562
545
557
601
611
588
564
391
421
436
462
481
455
410
416
429
458
601
599
582
561
540
559
599
621
599
562
390
419
440
461
483
452
408
409
417
460
608
599
582
560
548
563
600
613
584
564
385
418
440
466
494
459
416
407
418
455
600
607
585
554
543
563
607
620
597
568
393
418
435
460
485
454
410
412
419
467
609
604
582
553
545
564
605
606
584
557
394
416
443
460
481
460
405
412
417
456
609
605
586
557
549
560
607
619
591
554
394
414
441
464
479
462
412
417
417
455
605
599
579
562
544
560
603
620
589
560
390
414
439
464
483
455
413
407
423
456
600
597
590
550
555
562
603
621
583
562
394
414
440
462
487
454
405
413
417
455
604
608
579
560
554
556
606
613
589
565
396
418
438
461
482
461
409
410
419
449
589
611
576
560
546
563
604
620
592
568
393
412
440
457
479
461
417
413
422
458
594
596
578
564
547
558
601
616
590
568
395
415
436
466
489
465
415
405
418
452
598
602
582
559
546
551
595
618
596
562
396
419
436
460
482
466
417
411
426
447
593
596
577
565
550
555
600
620
592
559
400
419
446
465
487
460
415
406
427
447
593
602
585
558
542
557
601
621
593
566
400
420
436
462
488
462
416
407
418
448
594
604
575
556
550
561
600
631
591
562
412
417
436
454
484
463
406
414
425
451
598
606
583
558
544
564
601
608
595
563
396
417
441
459
480
462
414
411
423
452
595
608
579
557
545
559
601
617
591
566
405
415
434
457
476
467
411
407
426
456
589
605
583
563
547
553
604
607
597
564
404
417
439
461
485
461
414
409
414
450
591
607
582
563
553
552
598
613
597
561
403
413
437
468
483
461
408
417
417
455
598
603
581
560
542
550
602
611
600
565
412
410
441
456
476
469
422
411
419
455
595
602
579
564
547
555
601
614
595
571
403
413
440
456
480
462
418
408
416
455
591
614
588
558
539
557
599
617
592
563
412
405
440
452
481
472
415
411
429
461
583
603
586
555
550
543
592
622
589
556
412
420
432
460
483
466
419
407
429
442
583
607
579
556
551
551
599
620
594
566
409
420
437
459
477
469
414
406
419
451
589
598
589
559
542
551
598
623
594
555
415
418
438
453
480
466
415
411
420
448
587
615
582
561
547
550
603
622
595
559
426
411
437
449
480
465
412
405
421
443
584
609
584
563
549
554
597
622
593
563
420
413
436
459
484
467
414
406
421
455
578
601
579
558
557
551
596
615
596
568
419
417
439
459
479
475
421
407
414
451
581
600
580
566
549
546
598
619
587
563
427
412
435
459
479
465
419
406
420
452
579
601
580
559
548
549
601
625
593
559
420
409
425
454
488
474
426
420
421
442
576
606
581
567
545
551
599
617
590
562
431
410
435
450
481
468
419
406
419
446
575
608
587
566
549
554
592
617
595
565
434
417
432
450
482
468
419
405
419
446
581
608
579
560
543
552
597
621
597
568
420
409
438
451
483
465
421
414
423
444
578
607
582
558
549
547
596
620
596
568
440
407
435
452
485
471
425
400
421
442
572
618
587
556
547
551
595
618
595
561
430
406
436
451
491
473
423
407
422
450
574
614
588
564
543
550
591
618
593
563
443
413
436
456
475
464
421
408
421
443
568
609
585
562
550
546
596
615
595
569
445
405
433
455
478
472
423
407
408
443
574
605
584
570
543
550
593
614
595
558
442
407
437
453
480
473
419
412
416
444
567
618
584
565
538
545
591
618
599
567
441
415
436
453
486
476
422
410
424
440
562
611
583
560
548
545
595
615
596
565
439
404
435
454
488
473
423
404
411
449
565
612
581
566
544
552
596
622
590
566
437
408
441
454
479
474
422
403
420
443
565
607
583
563
549
548
595
621
595
568
450
407
430
448
482
478
430
408
415
440
562
606
585
569
551
545
587
621
594
571
443
404
435
455
470
473
427
405
422
448
564
604
589
565
558
535
589
622
593
566
449
408
434
456
474
480
422
403
414
444
553
607
587
566
547
546
590
617
603
566
454
407
436
448
473
470
425
419
414
442
553
611
585
573
551
542
589
620
591
569
453
407
429
451
477
476
433
400
423
444
552
609
588
566
553
547
591
612
598
566
454
406
443
448
480
476
428
410
409
441
560
608
575
573
545
545
593
615
595
569
454
404
428
453
484
483
427
404
419
450
551
609
584
562
546
550
588
623
597
572
454
408
431
447
479
473
430
410
409
449
545
613
585
570
551
549
586
614
587
569
460
402
433
453
483
481
428
407
415
443
548
608
583
563
543
543
590
616
596
572
465
404
432
460
478
470
428
410
420
446
541
610
585
568
540
548
593
618
594
568
461
400
431
454
474
482
431
406
415
445
544
600
587
570
547
546
594
611
591
567
465
406
427
455
480
478
423
414
415
435
536
614
587
570
549
540
585
617
598
570
469
403
432
450
476
471
425
401
419
453
543
607
589
569
550
545
585
614
592
571
469
396
434
451
483
485
427
407
415
440
535
608
590
570
550
544
583
615
592
568
465
406
435
448
480
480
428
410
427
438
534
608
584
568
548
540
588
620
594
577
475
399
432
448
484
478
427
402
419
435
539
620
588
571
546
545
577
617
600
574
479
396
436
452
469
479
429
410
423
440
536
613
593
569
547
546
584
614
597
568
475
403
431
449
473
476
424
411
424
434
524
616
582
568
554
546
583
620
591
565
478
407
428
448
474
478
431
401
423
444
519
619
591
570
553
547
586
617
587
577
476
400
435
444
470
484
435
408
417
439
526
611
589
559
552
542
579
613
596
572
485
394
433
449
480
485
439
412
421
435
512
618
589
565
552
542
584
620
593
568
480
401
433
450
471
477
437
414
418
433
518
612
595
575
547
548
578
619
592
574
485
385
429
448
474
481
438
404
422
439
519
616
587
568
554
544
580
615
595
572
487
395
429
455
479
481
430
406
413
436
510
603
594
569
556
542
580
612
603
573
486
397
432
451
476
478
431
408
413
442
511
615
594
576
547
546
579
611
594
577
493
387
432
448
476
476
430
407
416
438
509
611
591
571
554
541
577
614
598
581
498
390
428
446
479
483
439
399
423
438
510
614
593
574
550
545
578
611
594
580
502
389
426
447
471
484
439
406
416
441
505
616
585
574
555
541
575
614
597
579
503
390
432
446
477
480
438
412
415
438
504
613
596
571
551
540
571
613
596
576
500
392
430
438
484
479
443
404
415
439
508
605
590
566
552
549
577
613
593
581
504
393
432
446
467
476
438
401
420
436
503
616
592
569
555
542
573
609
601
583
515
388
438
448
472
476
436
400
414
435
500
609
596
568
552
543
572
610
596
583
503
395
434
446
469
480
439
414
417
425
500
620
596
567
550
541
572
611
599
582
507
392
431
445
473
479
436
415
420
436
492
609
588
568
549
541
577
620
601
575
517
384
427
441
479
477
436
407
417
430
489
612
598
577
558
548
575
612
591
581
509
387
430
448
480
487
441
406
417
431
490
607
587
570
555
551
570
613
597
580
515
386
430
449
476
485
442
405
418
424
494
612
592
575
551
543
580
613
603
575
516
387
424
451
473
489
444
409
417
429
485
610
585
577
549
546
567
614
594
580
523
388
428
449
471
475
439
420
418
430
488
611
583
574
554
545
571
614
599
575
519
391
427
444
470
487
437
414
414
427
480
611
594
572
554
547
572
624
595
585
523
386
428
449
470
486
445
407
416
423
481
610
591
576
554
535
576
609
600
586
531
398
426
441
476
476
438
415
424
434
475
606
597
574
558
540
571
606
601
583
527
384
424
448
473
480
442
405
418
435
483
608
596
568
555
549
579
606
600
582
534
379
425
444
467
479
454
410
412
440
477
608
595
571
557
551
569
611
592
582
534
386
434
443
476
478
453
409
421
422
468
612
594
579
556
543
570
608
602
583
540
382
419
443
470
483
449
414
410
427
479
603
589
577
558
541
568
613
598
580
533
396
430
444
461
481
452
415
418
437
465
608
599
576
552
545
558
605
608
588
544
384
425
449
475
476
455
415
415
423
467
603
592
573
557
551
569
607
604
582
535
389
432
441
477
476
448
414
421
436
472
605
591
568
556
542
564
606
607
590
545
384
424
440
467
483
448
408
426
435
471
610
588
574
556
546
562
597
605
589
544
388
425
440
466
483
448
412
423
429
461
611
594
574
565
539
563
603
603
588
552
388
420
437
473
480
449
415
425
431
470
603
598
574
560
542
562
602
610
575
559
392
426
446
472
484
453
408
412
428
473
608
593
578
556
547
563
609
603
586
550
384
424
445
467
480
456
417
415
430
469
607
601
572
553
540
553
605
613
582
556
393
423
443
462
482
448
409
415
434
470
604
598
574
554
545
563
602
614
583
547
388
431
446
470
483
455
414
412
431
462
602
593
579
559
536
568
599
614
584
552
388
424
438
463
485
463
411
416
427
458
609
591
573
551
542
564
610
607
587
552
392
420
441
465
491
456
418
414
426
460
605
604
579
555
543
561
609
614
584
554
392
425
439
467
492
448
413
415
425
465
607
596
566
552
553
561
596
614
583
561
385
419
446
467
492
456
410
416
425
457
595
597
572
556
544
563
606
609
585
555
395
428
447
467
486
455
421
414
426
457
596
595
577
551
542
559
599
616
583
562
389
432
445
460
481
462
413
413
426
457
606
598
576
557
535
559
609
606
589
565
391
415
439
468
487
455
417
419
435
457
595
597
577
548
546
555
611
616
586
558
396
425
440
463
480
463
405
419
431
467
600
590
579
557
547
559
601
612
583
562
400
420
440
466
485
455
410
419
427
464
595
599
579
552
540
559
605
615
592
559
392
417
451
465
481
460
415
411
423
462
601
601
570
551
546
563
604
603
588
561
389
418
443
469
480
461
413
412
427
459
601
598
574
559
550
555
597
613
593
553
395
423
436
465
484
463
414
414
426
459
596
602
582
559
538
557
604
617
592
563
393
419
440
470
480
460
413
409
428
452
599
600
583
557
545
557
597
619
592
561
394
423
443
467
477
464
410
417
426
454
602
600
574
560
551
547
597
621
593
558
406
422
436
464
476
461
419
410
427
448
598
604
576
561
543
556
591
615
589
560
403
420
444
468
481
462
418
414
425
463
593
600
579
561
552
548
604
615
599
560
400
419
436
465
486
462
412
417
427
458
592
604
575
561
544
559
590
616
588
558
400
419
435
464
487
468
416
413
424
449
598
603
578
559
545
549
605
612
585
558
408
419
437
465
487
460
409
410
431
455
583
593
577
549
544
561
600
614
586
560
410
417
443
466
485
469
412
415
426
448
595
608
575
560
547
550
596
615
593
560
411
412
433
467
487
466
411
412
418
444
591
607
577
559
546
555
593
613
604
564
410
416
439
468
478
465
415
416
422
454
588
600
579
560
545
548
592
618
594
561
411
418
445
466
479
463
419
417
419
452
591
601
579
565
541
551
594
612
597
557
409
417
431
463
487
469
419
406
423
452
591
606
583
558
543
550
591
610
591
560
417
415
433
457
477
475
427
410
423
451
590
602
583
562
546
551
601
614
590
554
416
412
438
466
479
462
420
410
428
451
587
607
578
559
547
558
595
616
589
554
418
423
439
464
479
468
421
412
423
448
580
604
578
557
550
551
599
620
586
560
426
416
441
456
480
470
427
412
432
441
575
603
580
560
546
547
596
613
598
557
419
416
435
460
493
462
417
411
416
453
585
602
574
562
543
552
598
616
595
551
423
422
442
458
484
472
423
410
423
450
578
601
585
558
550
552
595
612
593
563
425
419
433
454
481
466
425
413
422
454
576
600
587
567
541
547
599
612
587
557
426
414
441
452
488
470
422
416
426
445
575
608
581
559
543
543
595
619
594
564
432
413
436
459
475
476
420
415
425
448
580
607
580
560
543
547
597
615
591
563
434
416
433
455
481
471
423
411
422
443
572
606
583
560
547
556
589
629
590
551
422
411
427
462
486
479
422
412
428
440
572
601
577
566
550
549
586
614
595
562
434
414
445
452
474
479
421
408
417
446
579
603
588
567
544
548
596
612
593
559
444
409
438
456
480
473
425
406
423
443
566
602
581
562
548
555
587
618
595
564
440
410
440
457
478
476
429
414
422
444
565
607
579
563
546
549
588
611
588
574
433
410
431
455
477
475
426
407
423
448
571
609
580
560
550
547
583
615
602
560
448
414
430
451
480
473
424
412
424
445
564
606
588
566
543
545
589
614
591
562
447
409
431
453
483
473
424
412
418
448
566
604
584
572
544
545
586
608
595
562
441
412
437
454
476
474
427
413
421
445
557
600
583
567
547
544
594
615
588
565
444
411
431
456
476
475
429
407
423
446
558
606
588
563
550
547
594
615
593
564
452
411
434
452
479
468
423
402
416
443
563
604
584
567
540
552
593
615
596
569
444
406
437
450
477
475
427
406
422
448
556
608
587
573
547
543
582
613
595
565
446
409
434
457
482
468
433
408
422
443
553
602
584
566
545
545
593
619
591
567
455
408
433
453
480
471
427
413
430
436
556
608
589
571
543
543
593
619
593
558
460
415
428
452
479
473
432
408
419
439
550
617
581
566
547
546
583
615
588
566
460
413
434
456
473
475
430
409
426
438
545
612
583
567
544
547
582
613
593
563
466
405
441
458
481
474
426
414
414
434
550
613
582
567
545
545
589
618
596
567
463
405
433
454
478
475
432
405
423
439
546
608
589
563
543
540
581
613
595
573
469
408
435
453
476
471
430
406
422
446
536
608
590
575
539
542
588
619
596
575
460
399
431
450
479
482
434
407
426
444
537
613
583
569
549
545
582
608
592
567
467
409
432
456
480
479
429
412
420
440
539
606
578
568
552
551
587
608
595
569
467
407
434
449
477
470
432
411
426
441
530
603
588
570
545
544
582
612
599
568
470
405
440
453
474
473
428
411
430
444
534
606
588
563
540
545
585
616
598
567
470
399
433
447
479
489
434
414
426
443
527
603
581
572
543
550
584
608
595
577
475
403
433
454
471
477
436
415
418
435
527
605
585
570
553
542
578
618
602
568
475
400
428
457
478
479
437
410
427
430
526
606
587
579
550
545
575
610
591
566
479
401
431
451
476
486
443
414
423
435
525
609
581
572
545
545
583
616
596
566
485
399
433
453
476
477
430
406
419
440
519
608
585
574
544
546
580
618
595
567
487
401
429
449
477
473
435
415
427
446
520
605
582
573
553
546
575
614
595
568
487
401
430
450
470
481
442
411
420
439
511
607
588
566
551
551
575
616
592
571
488
394
428
456
476
479
436
406
417
434
516
610
587
574
543
543
579
615
596
572
491
395
426
450
476
477
439
408
419
439
516
608
591
568
548
542
580
622
599
575
491
392
431
448
477
479
440
406
420
435
504
607
585
579
550
546
580
618
598
571
491
391
435
450
476
483
430
408
414
436
508
608
591
572
551
542
578
611
597
572
499
394
433
449
477
481
442
409
412
435
506
611
587
572
555
545
569
614
601
576
496
403
432
446
478
476
435
415
414
434
502
605
587
568
539
549
568
605
594
579
507
393
435
453
474
478
448
411
425
433
504
610
591
569
546
536
570
615
605
581
506
387
430
457
471
486
436
414
423
432
499
603
591
568
552
548
568
605
598
576
503
397
438
447
471
485
444
409
423
437
501
611
588
567
551
541
567
604
595
580
515
386
436
449
475
483
448
413
422
422
492
605
594
572
555
547
572
604
592
575
517
392
438
451
470
478
441
414
422
430
490
609
595
571
552
551
574
610
598
574
511
384
439
448
472
482
446
414
416
428
489
605
592
581
555
540
567
614
597
573
518
391
431
453
465
477
442
414
420
438
492
606
592
573
550
540
566
609
600
572
515
390
433
457
476
484
446
409
416
427
492
606
586
577
554
543
569
606
591
575
525
392
431
448
469
476
440
421
426
434
483
605
589
573
550
553
570
613
595
570
525
388
433
455
466
480
447
411
424
431
482
608
585
576
556
550
572
604
601
577
525
385
435
446
463
481
451
403
416
442
480
602
594
579
546
542
562
604
600
579
525
394
435
449
472
484
448
418
425
433
474
599
587
571
551
542
572
607
605
572
533
382
435
451
466
483
456
420
421
427
483
600
592
571
546
541
560
604
600
574
536
385
437
452
474
491
446
410
424
433
479
604
585
570
555
551
565
611
597
575
528
387
431
452
480
481
444
408
419
433
472
607
588
574
548
541
569
607
602
572
539
388
426
455
471
489
455
416
414
432
475
603
589
573
551
545
558
604
604
578
531
388
431
446
475
484
458
417
426
427
467
604
588
574
550
543
561
611
592
580
543
394
432
451
468
484
452
417
417
430
474
608
587
574
553
541
564
600
603
575
540
389
425
452
468
478
449
417
424
436
467
601
591
575
551
540
566
600
608
574
540
389
427
453
472
480
460
419
417
430
472
594
600
576
543
543
565
607
596
577
544
388
427
452
471
485
452
421
423
429
472
601
592
572
548
550
558
594
595
579
549
392
431
454
478
486
460
421
422
430
472
601
588
563
545
542
560
601
604
576
549
394
438
445
469
479
459
417
434
431
476
594
584
568
551
539
554
602
609
574
551
397
436
457
473
486
453
419
426
431
470
598
594
570
550
543
551
591
605
571
552
390
429
451
474
487
454
427
427
440
474
593
589
577
551
537
552
590
604
574
548
401
433
450
476
480
463
423
438
440
474
592
583
563
543
537
556
589
595
572
547
406
441
452
475
492
461
423
430
440
471
585
589
566
546
538
556
582
589
574
539
411
435
453
472
489
470
429
441
444
477
581
579
561
552
533
552
585
589
564
545
412
445
451
473
493
461
431
436
439
467
585
579
562
545
530
538
579
597
572
543
415
439
461
476
490
472
436
437
444
477
580
572
563
546
531
550
580
590
557
542
417
441
463
478
489
466
438
440
444
481
575
574
562
542
535
548
576
600
563
546
417
444
463
479
490
469
435
440
443
467
574
574
560
536
540
547
583
591
560
543
417
436
460
479
491
472
440
436
440
480
575
568
563
541
537
548
576
584
569
538
423
449
469
478
491
466
446
452
450
478
570
573
562
549
537
538
565
589
563
535
423
457
466
483
488
467
437
442
445
478
571
566
564
543
531
539
568
586
564
542
433
457
459
476
489
472
445
440
445
463
574
571
558
536
531
543
569
585
566
546
424
447
465
482
491
475
445
435
443
472
576
574
559
538
535
543
575
590
564
547
421
448
463
477
492
475
436
440
443
473
566
575
557
546
534
542
565
583
564
538
435
450
466
470
492
475
444
447
450
475
568
564
552
537
533
536
562
588
555
544
436
450
464
477
496
473
438
446
446
475
563
566
540
539
531
532
564
585
555
546
435
451
470
483
493
478
444
443
450
468
569
565
549
530
529
542
562
588
559
540
428
449
460
476
489
475
448
454
455
470
567
569
554
534
529
540
562
573
554
539
435
452
464
477
499
477
448
447
449
471
560
564
557
530
531
531
556
577
553
538
433
453
472
485
494
480
449
453
447
474
566
555
550
536
527
531
554
581
556
532
435
458
462
487
493
476
447
460
455
474
561
560
552
530
524
529
558
572
553
532
446
456
471
485
497
475
455
460
455
476
556
561
549
537
529
531
555
580
549
534
449
460
477
483
492
480
450
453
449
479
556
561
546
539
528
531
561
572
552
541
448
456
472
481
503
485
453
456
452
474
556
563
539
530
528
534
556
579
560
533
442
453
467
481
499
486
460
451
452
477
555
559
542
537
533
531
559
574
551
535
453
458
470
475
493
487
455
453
450
472
561
566
553
537
529
531
558
573
552
531
447
459
476
483
499
487
459
455
456
473
557
566
550
537
527
532
556
571
547
534
452
452
469
474
496
484
459
455
454
476
560
561
557
538
529
523
556
574
550
541
454
460
470
486
495
483
454
448
461
481
552
559
553
536
530
533
555
570
559
536
457
455
470
483
494
487
456
451
455
478
548
559
547
540
537
535
551
575
547
543
454
462
471
482
493
487
451
459
462
479
551
552
553
539
529
529
556
571
551
533
454
460
479
478
495
483
462
453
459
473
548
557
551
532
529
528
551
575
554
537
461
455
472
484
492
487
461
454
462
473
551
551
542
536
529
527
550
580
551
536
459
456
472
482
495
486
461
463
462
462
554
558
542
537
524
530
553
573
553
535
455
462
476
484
496
488
456
459
452
473
550
561
550
536
523
523
558
582
544
533
463
466
476
486
499
484
451
463
457
476
542
558
543
534
529
529
548
572
539
541
465
461
476
480
496
492
462
464
461
477
541
559
543
537
524
526
551
569
547
523
469
471
474
484
497
493
469
459
458
479
545
544
543
539
523
531
540
565
541
536
473
465
476
481
500
492
469
467
463
474
546
547
547
537
525
529
539
556
541
527
479
470
480
483
497
488
470
476
472
485
536
551
533
523
526
528
532
560
541
532
478
470
481
484
498
495
475
468
471
479
536
557
536
525
524
531
532
549
535
524
489
473
486
496
502
492
467
470
470
485
537
547
539
529
513
523
541
554
541
523
480
475
484
499
500
498
478
464
471
484
527
547
534
520
533
520
534
557
536
527
480
476
486
487
504
497
465
469
477
483
536
539
535
527
521
519
540
567
543
527
485
466
481
491
502
494
471
477
476
481
536
541
538
522
520
520
534
556
542
527
489
475
485
485
497
496
483
468
472
480
527
540
543
529
515
519
534
547
523
529
493
475
482
492
504
502
484
478
472
479
526
539
540
527
518
520
535
552
532
529
492
479
482
487
502
497
476
472
478
491
521
548
535
527
521
519
533
553
537
527
486
479
481
492
502
497
486
476
473
485
517
541
537
530
519
519
525
548
535
517
496
480
485
497
503
499
478
477
474
491
525
536
529
525
518
515
524
551
540
525
496
475
483
496
502
500
485
472
475
492
524
532
537
525
522
517
529
545
526
525
502
481
490
492
503
498
479
478
472
483
528
547
529
525
516
519
527
552
525
521
495
483
493
492
505
499
486
482
470
480
526
539
529
523
513
515
532
547
527
532
500
474
489
489
499
495
480
479
472
487
534
532
527
521
521
516
527
550
521
523
501
476
483
499
505
501
484
476
479
487
526
533
539
518
520
517
528
548
527
532
514
473
498
490
499
499
485
486
473
487
524
531
526
519
523
519
524
545
531
517
503
484
489
487
505
500
486
484
476
487
520
537
524
524
519
511
523
541
523
527
501
483
500
495
511
498
479
480
478
485
522
536
532
520
515
513
525
549
527
516
501
482
494
487
502
498
486
482
479
483
525
530
529
517
519
514
526
550
530
517
500
478
488
492
508
494
484
481
485
485
522
534
527
523
525
514
529
547
521
519
502
478
487
491
505
501
491
478
479
481
515
540
535
527
512
520
527
546
526
518
496
475
484
493
504
508
488
484
466
490
524
538
526
521
519
514
522
542
532
524
507
469
484
496
506
495
491
479
471
482
516
536
537
527
508
521
529
545
521
519
503
479
492
500
501
493
488
484
474
486
522
533
530
524
515
510
521
542
530
522
505
481
484
492
507
499
494
480
478
490
516
530
523
520
519
513
517
544
527
519
503
483
497
489
504
499
487
483
476
496
515
534
529
520
510
511
523
542
527
523
501
482
488
491
507
502
493
482
480
494
517
532
527
523
513
514
523
543
526
525
503
478
489
495
500
495
487
487
474
486
513
533
524
523
520
519
526
543
529
518
500
487
499
497
506
502
485
472
477
488
518
525
525
517
520
519
523
540
522
520
510
472
489
491
499
503
494
487
483
492
509
523
524
530
520
515
520
536
521
521
509
478
503
497
508
497
482
480
485
498
520
524
521
519
515
517
516
543
526
516
504
481
497
494
511
494
490
486
478
494
521
524
523
524
517
513
519
535
525
520
511
475
489
499
509
498
491
480
483
490
517
527
525
519
517
513
518
539
528
515
509
486
494
492
502
503
492
482
480
491
511
529
527
525
519
515
517
538
521
515
511
482
495
498
513
506
492
492
483
496
508
525
523
517
516
519
516
535
525
523
507
485
491
500
493
504
496
482
485
488
509
529
524
514
515
510
520
536
530
518
513
483
495
495
508
497
495
483
481
494
510
516
524
521
520
512
525
540
524
520
505
481
499
491
505
501
491
476
479
496
508
528
518
516
521
512
519
534
532
520
511
474
487
493
508
503
495
483
479
488
509
529
524
516
519
515
519
532
524
520
512
482
495
492
500
502
493
492
483
488
514
521
531
518
519
510
513
529
518
520
512
476
496
499
502
500
492
488
487
487
511
522
526
