482
488
497
504
512
518
522
524
524
522
516
509
501
492
484
477
473
471
470
473
478
485
493
502
510
516
520
523
523
520
514
507
498
488
480
473
468
465
464
467
471
478
486
495
504
510
514
517
516
514
508
500
491
482
474
467
462
460
459
462
467
475
482
490
499
505
510
512
511
508
502
495
486
477
469
462
457
455
455
458
464
471
479
487
495
502
507
509
510
508
502
495
487
479
471
464
460
457
456
460
465
472
481
489
498
505
510
512
512
510
505
499
491
483
476
471
467
465
466
470
477
486
496
505
514
523
528
531
532
532
529
524
517
510
504
499
497
497
498
504
511
519
530
540
550
558
564
569
570
568
564
558
551
544
539
532
529
528
529
534
540
549
558
567
576
583
588
591
591
588
583
575
568
559
552
546
542
540
539
542
547
555
564
572
581
589
593
595
595
591
585
578
569
561
553
546
541
539
539
542
547
553
562
569
577
583
587
589
588
585
579
572
563
553
545
537
531
529
527
531
535
542
550
557
565
571
575
577
575
572
566
557
548
539
531
524
518
515
514
517
521
528
536
545
553
559
563
565
563
560
554
547
538
529
521
515
510
507
506
510
514
521
529
537
545
551
556
558
557
554
547
539
531
523
516
509
504
503
502
505
510
517
526
534
542
547
552
555
555
551
544
537
528
519
513
506
502
499
498
501
506
513
521
529
537
543
548
550
549
546
540
532
523
515
508
502
496
494
494
498
503
511
518
526
535
540
545
547
546
543
537
529
521
512
504
498
493
491
491
495
500
507
516
524
531
538
543
544
543
541
535
528
519
511
504
497
493
490
491
494
500
508
515
523
531
536
540
543
543
540
534
526
518
510
503
496
491
489
490
494
500
507
514
522
530
537
542
543
543
539
533
525
517
509
502
495
491
488
488
492
497
504
513
521
529
534
540
542
541
537
531
523
515
506
499
492
487
485
485
489
495
502
511
519
527
533
538
540
539
536
529
521
513
505
497
491
487
486
485
489
496
504
512
519
528
534
539
542
542
539
532
525
517
508
501
494
489
487
486
491
496
503
510
518
526
532
536
539
538
535
528
521
513
504
497
491
487
485
485
489
494
501
510
518
526
532
536
538
536
532
525
518
511
502
495
488
484
482
482
485
491
499
507
515
523
529
532
534
534
530
524
517
509
500
493
486
482
480
480
483
489
496
504
512
519
525
529
531
530
527
520
512
504
496
488
482
478
476
476
480
486
493
502
509
517
523
527
528
527
524
518
510
502
493
486
480
476
474
475
479
484
492
500
508
517
523
527
529
528
525
519
511
504
495
488
481
477
476
476
481
487
495
503
511
519
525
529
531
530
527
520
513
504
496
488
482
478
475
475
479
484
492
500
509
516
523
527
530
529
526
519
512
504
495
487
480
476
473
473
478
483
492
500
508
516
522
526
528
526
523
516
509
501
492
485
478
473
472
472
477
482
489
498
506
513
520
524
526
525
521
514
507
499
491
483
477
472
472
472
477
483
491
499
507
515
521
525
527
526
523
516
508
499
491
484
478
473
471
472
477
483
491
500
507
515
521
525
527
526
523
515
508
500
491
483
478
473
472
473
478
483
491
500
508
515
521
525
527
526
522
515
508
500
492
485
479
475
473
474
479
484
492
501
509
516
522
527
528
528
524
518
510
501
492
485
479
475
473
474
478
484
492
500
509
517
524
528
530
529
527
520
512
504
495
487
480
476
473
474
478
483
491
499
506
512
517
520
522
521
517
511
503
496
487
480
473
470
467
467
471
475
481
490
499
507
514
519
522
522
520
514
508
500
492
487
481
478
477
478
483
490
499
508
517
526
532
537
539
539
536
530
522
514
506
500
494
490
489
489
494
500
507
516
524
531
536
540
542
540
536
530
521
513
504
496
491
487
485
486
490
496
504
512
520
528
534
537
539
536
532
524
515
507
497
489
482
478
476
476
480
484
488
492
493
492
487
478
466
449
428
403
376
349
322
298
279
264
255
248
248
251
253
255
258
265
275
288
301
311
318
326
337
354
376
405
443
494
545
593
638
673
702
723
738
747
748
743
733
718
700
679
657
636
615
595
578
564
554
548
546
547
551
556
560
566
568
571
571
568
563
555
546
538
528
521
514
510
508
509
513
519
527
536
543
551
556
559
561
559
554
547
540
530
522
515
508
504
503
504
508
515
523
531
540
547
551
555
556
555
550
544
536
526
518
511
505
501
499
500
505
511
518
526
534
541
547
550
551
548
543
536
527
519
510
503
496
492
490
491
495
501
508
516
524
531
537
540
541
540
535
528
520
511
503
496
489
486
484
486
490
497
505
513
521
529
534
538
539
537
533
527
519
511
503
496
489
487
487
488
494
502
511
519
528
537
543
548
551
549
547
542
535
527
517
508
497
487
480
476
476
481
489
498
506
513
519
524
526
526
522
516
509
501
492
485
481
478
478
480
485
490
496
504
510
517
522
524
525
522
518
511
504
496
488
482
477
474
472
472
476
482
491
500
509
516
521
525
527
525
520
513
506
497
490
483
478
474
473
474
479
485
493
501
510
517
522
525
526
524
519
513
505
497
489
482
476
472
471
472
477
483
491
500
509
517
523
527
529
528
525
519
513
507
499
494
489
486
487
489
496
503
512
521
530
538
542
544
544
540
534
524
514
504
495
487
481
477
476
477
482
487
492
498
506
514
519
524
525
524
521
515
507
498
489
481
474
471
470
473
479
487
497
508
518
527
534
539
541
541
537
533
526
520
513
508
503
501
503
506
514
523
533
544
554
564
572
578
582
580
577
572
564
556
549
544
540
539
540
542
547
551
557
563
569
577
582
585
588
586
582
573
563
551
539
530
522
518
516
518
523
529
539
549
558
567
574
579
582
582
578
572
565
559
551
545
539
535
534
536
542
550
560
570
579
587
592
595
595
592
587
578
569
561
553
547
541
538
537
540
545
551
559
568
575
582
587
588
589
586
580
572
562
551
541
533
526
521
518
518
521
525
530
537
544
550
554
556
556
553
547
540
531
521
513
506
501
497
496
497
502
507
514
521
529
535
539
542
541
537
531
524
515
508
500
493
487
484
483
486
492
499
509
518
527
536
541
543
544
540
534
525
516
507
498
490
482
479
479
482
488
497
506
514
523
531
538
541
543
540
537
531
523
515
507
500
494
490
488
488
492
496
503
511
517
525
529
532
533
531
527
520
513
504
496
489
483
480
479
480
485
491
499
506
515
522
527
531
532
530
526
519
510
502
494
487
482
479
479
481
486
493
500
509
517
525
530
533
534
531
527
519
511
504
496
489
484
482
482
485
492
499
507
515
523
531
536
540
540
538
532
524
516
508
498
491
484
480
479
482
487
493
501
510
518
525
530
532
532
530
526
519
512
504
496
489
483
479
478
479
484
490
498
507
514
520
525
527
528
524
519
512
505
496
488
482
477
474
475
476
482
488
495
504
511
518
523
527
528
526
522
515
508
500
491
484
479
476
476
478
483
490
499
508
515
523
527
529
531
527
521
514
505
497
488
481
476
472
471
473
477
483
491
499
506
513
517
520
521
518
513
507
500
492
483
477
472
469
467
470
474
480
489
497
504
511
516
519
519
516
512
506
498
491
484
478
474
471
470
472
476
483
491
499
507
515
520
523
525
521
516
508
500
492
484
477
472
468
468
471
476
482
491
500
508
517
523
527
529
527
524
518
511
504
495
487
482
478
476
476
478
479
481
485
489
495
497
499
498
494
490
481
473
465
456
448
442
439
438
439
443
450
457
465
473
480
485
488
489
488
484
478
471
464
457
451
448
447
447
451
457
464
472
480
488
496
501
505
506
504
501
495
487
480
472
465
461
458
459
461
467
473
482
490
498
505
510
513
514
512
507
501
494
487
479
474
470
467
467
469
473
479
484
491
498
504
509
512
512
508
502
494
486
479
472
467
464
464
465
469
476
484
494
504
512
521
527
530
531
527
520
511
498
485
473
466
460
459
461
464
471
479
487
497
506
514
521
526
528
526
523
518
512
505
497
490
485
483
483
485
489
496
505
513
520
527
531
534
534
531
527
520
512
505
497
491
486
483
482
483
489
496
504
512
520
527
533
536
539
535
528
519
510
502
493
486
482
480
480
482
487
494
502
512
519
527
532
534
533
529
520
511
501
492
484
480
476
475
475
478
483
491
499
507
513
520
526
529
531
529
526
520
514
507
500
495
490
488
488
492
497
504
512
520
528
536
542
545
547
545
541
535
527
520
513
508
502
499
499
501
507
512
518
525
531
537
541
542
542
537
531
523
515
508
499
493
488
486
487
490
496
504
511
518
526
534
540
543
544
543
540
533
525
517
509
502
495
489
486
484
488
494
500
505
508
508
505
498
486
468
447
423
397
370
343
317
293
273
258
250
248
249
255
260
265
271
278
289
303
314
327
338
350
365
383
407
440
479
529
579
627
670
705
730
750
766
774
775
768
755
738
717
696
672
651
631
612
596
583
574
569
567
566
567
568
571
571
570
568
562
555
546
537
528
520
515
510
508
509
512
518
524
532
540
547
554
558
560
562
560
555
548
539
528
518
511
505
502
501
504
508
514
521
527
534
540
543
545
546
542
536
529
521
514
506
500
495
493
493
496
500
508
515
524
531
538
542
545
544
542
536
528
519
511
501
494
488
485
483
484
489
495
500
508
514
521
525
529
531
529
524
518
511
504
497
492
486
483
480
481
486
493
502
511
519
526
530
532
533
530
526
519
512
505
497
491
486
483
483
483
487
491
496
503
509
516
520
523
525
522
518
511
503
496
487
481
476
473
473
476
481
488
496
504
512
518
519
519
517
513
509
503
497
491
484
480
476
474
473
477
483
490
498
506
514
521
526
529
529
526
521
514
505
496
488
482
478
476
476
478
483
490
499
508
515
523
526
528
528
524
519
511
502
493
484
478
471
467
464
463
465
470
477
485
492
498
503
506
508
506
502
496
489
483
477
472
468
468
469
472
478
486
495
504
512
518
520
520
517
511
504
497
490
483
478
473
471
471
473
476
480
486
494
502
508
514
518
520
521
518
514
508
499
492
484
479
475
474
475
479
485
491
498
505
513
520
527
530
531
526
521
515
508
501
495
491
488
487
488
493
499
507
516
526
536
545
552
557
561
561
558
553
546
539
533
528
525
524
526
531
537
543
550
557
563
570
574
576
577
573
568
562
555
547
540
536
533
532
534
539
547
556
566
576
584
591
595
597
595
592
587
580
573
565
558
551
546
544
544
548
552
558
565
572
577
583
586
587
585
581
575
568
560
552
544
539
534
532
533
536
542
549
557
566
573
578
580
581
580
575
569
561
552
543
535
528
523
520
521
525
531
537
545
553
559
563
565
566
564
559
552
542
532
523
513
506
503
502
503
507
512
519
527
535
542
549
555
558
557
554
549
540
532
524
516
513
511
510
511
513
517
522
528
534
540
545
550
551
550
545
538
529
519
510
502
496
491
489
490
492
497
503
511
519
526
533
537
538
538
533
527
519
511
501
494
487
484
483
483
487
494
502
510
519
528
536
540
542
542
539
535
528
521
514
507
501
497
494
493
493
497
502
508
516
523
530
536
540
540
536
530
522
514
506
499
494
490
487
487
490
495
501
508
515
523
528
532
535
535
531
526
518
510
500
493
487
485
484
486
489
495
503
512
522
531
539
544
546
546
543
539
532
525
517
509
503
497
495
495
497
503
508
515
522
529
536
540
543
542
540
535
528
521
513
507
501
497
495
496
499
504
509
513
517
522
528
532
535
535
531
526
519
512
504
498
493
490
489
491
494
501
510
519
529
538
545
549
551
549
543
537
529
521
513
505
499
493
491
492
496
503
511
521
530
536
543
547
550
551
547
543
536
528
520
513
507
502
500
499
501
505
512
519
525
532
539
545
548
548
543
536
527
518
510
501
495
491
489
488
493
500
509
517
527
536
545
551
553
553
550
543
536
527
520
514
510
504
502
502
504
510
516
524
530
535
539
541
543
542
538
532
525
516
509
502
497
493
491
493
496
503
511
519
527
535
540
544
547
546
542
539
532
526
519
514
509
505
503
503
507
512
519
527
535
540
543
542
538
533
526
517
509
499
491
482
477
473
473
476
479
487
495
503
511
519
527
534
537
538
536
531
522
514
507
500
495
492
489
489
493
499
506
511
515
519
525
529
530
529
523
515
507
497
487
478
472
469
468
470
475
483
492
502
512
521
528
530
531
527
521
514
504
492
481
472
466
462
460
462
466
473
483
493
504
513
521
526
529
528
523
516
509
501
492
485
481
478
478
479
483
489
496
504
511
519
525
531
533
533
528
523
515
505
495
484
475
469
466
465
468
476
485
495
504
511
515
516
516
512
507
502
495
487
481
475
470
468
469
473
480
488
496
503
510
518
525
529
532
533
531
527
521
513
507
500
495
492
490
491
493
498
504
509
516
522
528
531
534
534
531
526
519
511
503
495
489
484
483
483
485
490
497
505
513
519
523
525
524
520
515
508
498
489
481
473
468
465
465
466
468
471
473
475
476
475
470
460
447
428
404
377
349
319
291
263
241
227
218
214
215
218
226
236
250
268
287
307
326
346
368
393
421
456
500
553
603
644
679
707
728
745
759
771
779
781
779
771
760
744
726
705
684
663
642
620
601
585
573
563
559
558
559
561
566
569
572
573
572
569
563
556
547
538
530
521
516
513
512
513
516
523
531
539
545
552
559
563
563
560
554
547
540
532
525
519
514
511
510
510
514
520
528
536
544
550
554
553
551
546
538
531
523
515
509
503
499
495
493
493
495
500
508
516
525
534
540
543
543
540
532
523
512
502
491
482
475
471
470
471
476
483
491
501
510
518
525
530
534
534
530
524
516
508
500
494
489
486
486
486
491
497
505
513
522
531
536
539
540
539
535
529
521
512
503
495
488
485
482
481
482
485
490
497
505
512
517
521
525
526
523
516
507
500
493
486
479
473
470
470
473
480
488
497
506
514
520
524
525
523
518
512
504
496
487
480
473
468
467
468
472
479
487
497
506
512
516
519
520
518
513
507
498
490
481
474
468
464
460
460
463
468
476
483
492
499
505
509
509
505
499
492
483
476
467
460
454
450
449
449
454
461
468
476
484
490
495
499
500
499
496
491
482
474
466
459
454
451
450
452
456
463
472
482
491
499
505
509
511
509
504
497
489
482
476
469
464
461
461
463
469
477
485
493
500
505
510
511
510
507
502
495
487
480
475
470
467
464
464
467
472
479
489
499
509
517
524
529
531
529
524
517
510
503
496
491
486
483
484
489
496
504
514
524
535
544
551
556
560
560
557
552
546
539
532
527
524
522
523
527
532
541
551
561
571
579
585
590
594
594
592
588
582
575
567
559
553
547
543
542
543
549
556
563
571
577
582
585
588
588
586
582
575
568
560
552
546
542
540
541
544
550
556
565
573
579
586
590
592
589
583
576
567
558
549
541
536
531
529
530
535
542
550
559
566
572
579
583
584
583
579
571
562
554
544
536
529
524
523
525
529
534
541
549
556
562
567
571
573
572
568
563
556
548
539
532
527
523
519
518
518
520
525
532
540
547
553
557
558
557
552
546
539
531
524
517
511
506
504
504
508
514
521
528
536
543
550
553
555
555
550
544
536
526
516
507
500
495
492
492
495
501
509
518
527
535
543
547
550
548
544
539
532
524
516
509
502
496
493
495
499
506
513
521
529
536
542
545
546
545
541
534
525
517
508
500
494
490
488
489
494
500
508
516
524
530
536
540
542
542
539
534
527
520
513
505
498
492
489
489
493
498
505
514
523
529
534
536
534
530
525
519
512
505
499
492
487
484
484
486
491
498
507
516
525
530
533
534
536
534
529
523
515
507
498
491
486
484
484
487
493
499
508
516
524
532
538
542
544
543
538
532
524
516
508
499
494
490
488
490
493
499
506
513
520
526
531
534
535
533
528
522
513
504
496
487
483
480
479
483
488
496
505
514
524
532
539
543
545
543
539
532
524
513
504
494
487
483
483
484
489
497
506
515
524
533
540
543
546
544
539
531
523
512
502
493
486
481
480
483
488
496
504
512
521
530
536
539
538
536
531
525
518
509
501
493
489
487
486
488
494
501
510
518
525
532
537
540
542
540
535
527
518
509
499
490
483
478
476
478
483
491
500
510
520
528
536
540
543
542
537
531
523
512
503
494
486
479
476
478
482
489
497
506
515
523
529
534
535
533
529
523
516
510
503
495
491
487
486
488
494
500
508
515
523
530
536
540
540
539
534
527
519
509
500
492
485
481
479
481
485
492
499
507
514
521
527
529
531
529
524
518
510
502
493
487
483
482
482
486
491
498
505
512
518
524
527
529
532
530
525
519
511
502
494
488
483
481
482
486
492
502
511
520
527
533
537
539
539
536
529
521
513
504
494
485
479
476
475
478
483
491
499
508
516
523
528
532
533
530
523
516
507
497
487
479
472
468
466
468
473
480
488
497
505
513
519
524
527
526
523
518
511
504
498
492
489
487
488
492
499
508
516
526
535
541
545
547
545
541
534
526
517
507
499
491
486
483
482
485
491
499
508
518
526
535
540
544
545
543
538
530
521
512
504
495
488
483
480
481
486
493
500
510
517
524
529
531
530
526
519
512
504
494
486
478
471
465
459
455
450
448
444
438
430
421
407
390
371
349
326
304
283
265
250
240
233
226
221
222
227
240
259
281
301
322
344
366
389
417
449
487
535
579
620
653
676
693
707
719
728
732
732
729
723
715
707
697
686
671
654
635
615
595
577
560
547
539
532
532
535
540
546
553
559
564
568
569
568
563
555
544
534
523
513
505
498
495
494
496
502
510
518
527
536
543
550
553
554
551
545
538
529
520
512
503
497
494
494
496
502
509
517
524
532
539
544
546
546
542
536
526
517
508
499
492
487
484
484
487
493
500
508
516
524
531
536
538
538
534
527
519
509
497
487
479
474
471
469
472
478
486
496
505
514
522
529
532
534
531
525
518
508
499
491
483
479
476
476
478
483
491
499
508
516
523
528
531
534
531
527
521
513
505
497
489
483
480
478
481
487
495
503
510
516
522
526
526
525
521
515
508
498
488
479
471
465
462
460
462
467
473
482
492
501
509
515
518
518
515
508
500
490
480
470
462
457
454
453
456
461
467
474
481
487
494
499
503
503
501
496
489
481
473
466
460
456
454
455
459
465
474
481
490
498
506
512
514
515
511
504
496
485
476
467
460
455
453
453
456
462
470
478
487
497
505
511
512
513
510
504
496
487
477
468
460
455
451
451
454
461
470
477
486
495
501
507
508
509
506
501
493
484
476
467
461
457
455
456
460
466
475
484
494
503
511
517
520
520
517
512
506
499
492
486
480
478
477
480
483
487
494
503
511
519
527
534
537
538
537
532
527
520
514
508
503
499
498
499
504
512
523
533
543
552
559
563
566
565
562
558
553
547
541
535
530
528
528
531
537
545
556
568
579
591
601
609
615
618
617
611
604
597
589
580
572
563
556
554
554
558
564
570
579
587
595
602
606
607
604
600
594
587
580
573
565
560
556
556
559
565
570
575
580
586
591
595
597
596
593
588
581
572
564
556
549
545
540
539
540
543
550
557
565
573
579
583
585
584
580
574
567
558
550
541
533
527
525
525
529
535
544
553
562
572
579
585
589
589
587
582
576
568
561
554
547
542
540
540
543
548
555
562
570
579
585
590
590
589
585
579
571
561
552
543
536
530
527
526
529
534
540
547
556
563
571
575
575
573
568
560
552
543
536
528
521
517
514
514
517
521
527
535
543
550
556
561
563
561
558
552
542
531
519
509
499
495
493
494
497
503
511
519
527
535
540
545
548
547
543
536
527
517
508
500
493
489
486
487
491
495
501
510
518
526
531
536
539
539
535
528
519
508
498
488
480
476
473
473
475
482
491
500
510
518
526
532
535
536
534
530
524
515
508
501
496
493
492
492
495
501
510
518
527
536
543
548
551
551
547
542
535
527
520
513
508
505
504
506
511
517
526
536
547
556
562
567
569
568
564
558
550
539
530
519
512
506
502
500
502
506
513
519
525
531
536
540
542
543
541
535
527
518
509
501
495
489
487
487
490
495
502
509
517
524
529
534
536
535
532
526
519
511
502
495
489
486
483
483
487
492
500
508
515
524
531
536
538
536
531
523
515
506
496
486
479
475
473
473
476
481
488
496
504
512
518
523
524
524
521
516
508
499
492
484
476
471
468
468
470
474
479
486
493
499
505
510
512
513
511
504
496
487
478
470
464
460
459
460
464
470
478
487
496
504
511
515
517
517
512
507
500
492
483
476
469
465
461
460
464
470
478
487
496
504
511
515
518
519
516
510
504
495
487
480
474
471
470
471
475
481
489
498
507
515
520
525
529
530
525
517
508
496
486
477
469
464
461
462
466
472
480
488
497
507
513
518
519
519
516
509
501
492
484
476
469
464
460
461
465
471
478
487
496
504
511
516
518
518
515
508
500
492
484
477
471
467
464
465
469
475
483
493
502
510
516
520
522
521
518
512
505
496
488
481
476
472
470
469
471
476
483
492
500
507
512
517
518
515
510
500
491
480
471
462
455
451
450
453
457
463
471
478
487
493
499
503
503
503
499
494
487
479
472
464
459
455
453
454
459
466
473
482
490
499
506
512
515
516
514
510
503
493
482
472
463
456
454
455
461
468
476
486
496
505
512
518
521
522
519
515
509
502
494
487
483
478
475
476
479
485
492
500
509
517
524
529
531
531
528
522
515
507
499
492
484
479
475
474
476
482
489
497
504
508
510
507
500
491
474
454
432
407
380
353
327
303
283
267
257
250
247
248
251
251
246
240
236
233
234
234
233
229
229
234
248
272
306
352
415
488
556
620
671
708
732
748
752
748
736
717
696
672
649
626
607
591
576
566
561
559
561
564
569
573
576
578
576
572
566
557
547
536
526
515
508
504
502
503
508
514
523
531
539
547
554
558
560
559
554
547
540
530
522
513
507
502
501
502
506
512
521
530
539
546
552
556
558
557
552
546
538
530
523
515
511
507
505
506
510
515
523
534
543
551
558
561
563
561
554
546
536
525
514
505
499
495
493
495
499
506
514
522
529
536
543
545
546
546
541
533
524
512
502
493
486
482
480
481
484
490
498
506
513
520
526
531
533
531
528
523
515
507
499
491
484
480
478
479
483
490
499
508
515
523
528
532
533
531
526
519
511
502
492
484
477
473
471
473
478
484
493
501
510
517
523
527
529
529
524
518
511
502
494
486
480
476
475
476
480
487
494
503
511
518
524
528
530
529
525
518
510
501
493
485
479
475
473
475
479
485
493
501
510
518
524
528
529
527
523
516
508
499
491
483
476
472
470
470
472
476
482
490
497
505
511
514
515
513
508
501
494
484
476
468
461
457
455
455
458
465
472
480
488
495
502
505
507
506
501
495
488
480
472
464
459
456
454
455
460
467
475
483
491
499
505
511
513
512
508
501
493
483
473
465
459
455
455
457
463
470
480
489
499
508
515
519
521
520
515
508
501
493
487
481
478
476
477
481
487
496
507
518
528
538
546
553
556
557
556
551
546
541
535
530
527
525
526
529
534
542
551
560
570
578
585
591
593
592
589
583
576
569
563
557
552
550
549
551
555
562
569
577
586
593
598
603
604
603
599
593
586
577
569
562
556
553
551
552
557
563
570
578
585
591
596
600
600
598
593
586
578
568
560
551
546
542
539
539
543
548
556
563
571
577
582
585
587
585
579
572
562
553
545
537
532
528
526
526
530
536
544
552
560
568
574
577
579
578
572
565
558
550
540
534
529
525
523
524
528
535
543
551
559
566
571
573
574
572
567
561
553
544
536
529
524
521
520
522
527
534
542
550
558
564
570
574
575
572
568
561
553
544
536
528
522
518
515
515
519
524
532
539
547
553
558
560
561
558
553
546
538
528
519
512
506
502
500
502
505
511
518
526
534
541
546
551
551
548
543
536
529
521
514
508
502
499
498
500
505
511
519
525
532
538
543
546
547
545
540
533
525
517
510
503
496
492
491
492
496
502
510
518
526
532
537
541
541
540
535
528
520
511
504
497
492
489
487
490
494
501
508
516
525
532
538
542
543
540
536
530
521
513
506
499
495
492
491
493
498
504
511
519
525
530
534
536
537
536
532
526
519
510
501
494
489
486
485
487
491
496
503
511
518
525
530
534
535
532
527
520
514
507
499
493
488
486
484
486
489
496
504
511
519
526
532
536
537
535
531
525
518
510
503
496
491
487
485
486
490
497
504
512
519
525
529
533
534
532
528
521
514
506
499
491
486
483
481
483
487
493
502
510
518
524
530
533
534
532
528
521
513
504
495
486
480
477
476
478
483
489
497
505
513
520
525
528
530
528
523
516
509
500
492
485
480
478
476
478
482
488
496
504
512
519
524
528
528
527
522
515
508
500
492
485
480
477
475
477
482
489
497
505
513
520
525
529
530
528
523
516
508
501
493
486
481
478
477
479
483
490
499
507
514
520
525
528
530
528
524
517
510
502
495
488
483
480
479
482
486
493
501
510
518
525
531
534
536
533
527
521
515
507
500
492
487
484
483
486
491
497
505
513
522
529
535
537
539
537
533
526
517
508
500
493
488
486
485
487
492
498
506
514
523
531
537
540
542
540
534
527
519
511
504
497
491
487
486
488
493
500
508
516
525
531
537
540
542
540
536
528
520
511
502
494
488
486
485
486
490
496
503
510
516
522
527
530
531
527
522
515
508
498
490
483
477
474
473
475
479
484
493
501
509
517
523
527
529
527
524
518
512
504
497
491
486
482
482
485
490
498
507
516
526
534
541
547
548
545
540
534
526
518
510
504
498
495
493
495
500
507
514
522
531
537
543
545
547
544
539
531
522
515
507
500
494
491
489
491
496
503
511
518
526
531
536
539
539
536
531
524
514
505
496
489
483
478
474
472
470
468
466
462
456
447
435
418
398
376
352
327
305
284
265
248
236
226
217
208
203
204
211
225
242
256
269
281
295
314
337
367
404
455
513
567
618
658
687
708
722
731
735
733
728
719
708
696
681
664
646
626
606
588
572
557
545
536
531
528
529
533
539
545
551
557
561
564
564
562
557
550
542
533
525
518
513
510
509
511
515
521
529
537
544
550
556
557
556
553
547
541
532
524
515
507
502
500
499
501
505
512
520
527
535
543
547
550
551
548
542
534
526
517
509
502
498
494
494
496
500
507
514
521
529
536
540
543
543
540
534
527
519
510
502
496
489
486
485
487
492
499
507
515
522
528
532
536
536
533
527
520
512
505
498
491
487
485
484
486
491
498
506
513
519
524
529
531
532
532
529
523
515
506
497
489
484
481
481
483
488
495
503
511
518
524
530
532
532
528
523
515
508
499
493
485
480
478
476
478
483
489
497
505
512
519
524
526
527
524
519
512
504
496
488
481
475
472
471
473
478
485
492
501
509
516
519
521
521
519
512
504
494
484
475
467
463
462
462
465
470
474
479
483
490
497
504
507
507
503
496
489
482
476
471
466
461
457
456
459
464
472
480
489
497
504
509
511
510
506
499
492
484
476
466
456
450
446
446
448
454
461
469
478
486
492
498
500
501
498
492
485
476
469
461
454
449
446
446
449
455
463
471
478
485
493
499
502
501
498
494
487
479
471
464
458
454
452
454
458
464
472
482
492
501
510
516
520
522
520
517
512
506
499
494
489
486
484
486
490
497
505
514
524
535
543
549
553
556
555
551
547
540
533
527
523
519
517
517
521
527
536
545
555
564
571
576
580
581
579
574
567
558
551
543
537
533
531
531
534
540
547
555
563
571
577
582
585
585
582
577
569
561
552
544
537
532
530
528
531
536
543
551
558
566
572
576
579
579
575
570
563
554
544
536
528
523
520
519
522
527
533
541
548
555
561
566
568
568
563
557
548
539
529
521
514
508
506
506
508
513
519
527
535
542
548
552
554
554
550
544
537
529
521
514
507
502
499
498
502
507
514
523
532
540
548
554
559
559
556
551
544
536
527
519
513
509
507
507
511
516
523
531
540
547
553
558
561
560
557
551
543
534
525
518
511
505
502
503
505
510
518
526
534
542
549
553
556
556
552
546
538
529
521
512
505
500
497
497
499
505
512
521
529
537
543
548
551
551
548
542
535
527
518
511
504
500
498
497
500
507
515
524
532
540
546
551
553
552
548
541
531
521
511
502
494
489
486
485
487
491
497
504
513
521
527
532
535
536
531
526
519
510
502
494
487
483
480
480
482
487
495
503
511
519
526
530
531
531
529
523
515
507
499
491
484
480
478
478
481
487
496
504
513
522
529
534
537
537
534
528
521
513
505
498
492
487
485
486
489
494
501
510
519
527
534
540
542
542
540
534
526
518
510
502
496
492
490
491
495
502
510
519
529
538
545
551
554
555
553
548
541
533
525
516
510
505
503
504
506
512
520
528
537
545
552
557
559
560
556
550
543
534
526
518
511
506
503
503
505
510
516
524
531
538
544
549
551
550
546
540
532
524
515
506
499
493
490
489
493
498
505
512
520
527
533
537
539
539
536
530
523
515
506
497
490
485
483
482
485
490
497
505
513
519
526
531
534
533
530
524
516
508
500
492
486
480
478
478
482
488
496
504
512
520
526
530
532
532
528
523
515
507
498
490
483
479
476
477
480
486
494
502
510
518
524
527
529
528
525
519
511
502
493
485
478
472
471
471
474
479
486
494
503
510
516
521
522
522
518
512
504
496
487
479
472
467
465
466
470
475
482
491
499
508
514
519
521
521
517
511
504
496
487
479
472
467
465
465
469
476
484
492
501
509
516
521
523
522
519
513
505
497
488
481
475
471
468
468
472
478
486
495
504
512
518
523
524
524
520
514
507
497
488
480
473
468
466
466
469
473
480
488
496
504
510
515
518
518
515
510
503
494
486
478
471
466
463
464
468
476
485
494
504
513
521
527
531
532
529
524
517
509
502
496
490
487
486
488
493
500
508
518
527
536
544
548
551
551
548
543
535
526
518
511
504
499
497
497
500
506
513
521
530
538
544
549
551
550
546
540
531
523
514
506
500
496
494
493
496
502
509
517
524
531
536
539
540
538
534
528
519
510
499
488
476
464
453
443
433
423
415
405
394
380
366
350
334
318
302
286
271
258
246
232
219
213
212
220
236
256
278
301
327
357
391
429
471
519
571
616
655
684
701
711
717
718
715
710
703
696
689
683
676
670
662
653
642
630
615
600
585
570
557
544
534
525
520
518
519
524
529
536
543
550
557
561
563
562
559
552
544
536
527
519
511
507
504
505
508
513
520
527
535
542
547
550
552
551
547
541
533
525
515
508
501
497
494
494
497
503
510
517
525
533
539
543
545
544
540
533
525
516
508
500
494
489
487
487
490
496
503
511
519
526
532
537
538
538
534
527
520
512
503
496
489
485
483
484
487
494
501
509
517
524
530
535
537
537
534
528
520
512
504
496
490
487
484
485
487
494
502
510
518
525
531
535
536
535
531
525
517
508
499
492
485
480
478
478
481
487
495
503
511
519
524
528
529
528
525
519
512
503
495
487
482
477
475
476
480
486
493
501
509
516
521
525
527
525
521
515
508
499
490
482
476
472
471
472
475
480
487
494
502
509
515
519
521
519
515
508
500
493
484
476
470
465
463
464
467
473
481
488
497
505
512
516
518
517
512
506
498
489
481
473
466
461
459
460
463
469
477
485
493
501
506
510
511
510
505
499
490
482
474
467
461
457
455
456
460
466
474
482
491
499
504
508
510
508
505
498
491
483
475
468
462
458
457
459
463
468
476
484
494
502
509
513
516
515
513
507
500
492
485
479
473
470
469
470
474
481
489
498
507
516
523
528
532
532
530
525
519
512
505
499
494
491
492
494
500
508
517
527
537
545
553
559
562
563
560
556
549
542
535
530
525
522
521
523
527
535
543
553
562
571
578
583
587
586
582
576
569
560
552
545
540
536
534
535
539
545
552
560
568
575
582
586
588
587
583
576
568
560
552
545
539
535
533
534
537
543
551
559
567
573
578
581
583
581
576
570
561
552
543
536
530
526
524
525
528
534
542
549
557
564
570
573
575
573
568
561
553
545
536
528
522
517
515
515
519
525
532
540
548
556
560
564
565
564
560
553
545
536
528
521
515
512
510
511
514
520
527
536
544
551
555
558
559
557
553
546
538
530
522
515
509
505
503
504
508
514
521
528
536
543
549
552
553
552
547
542
534
526
517
509
502
499
496
497
501
507
515
523
531
539
545
548
551
550
545
540
531
522
515
508
502
498
497
498
502
509
516
525
533
541
547
551
552
550
546
539
531
522
514
507
501
496
495
496
500
506
514
523
531
538
544
548
550
549
545
538
530
521
514
507
502
498
496
497
501
507
513
522
530
537
543
547
548
546
542
536
528
520
511
504
498
495
493
495
499
504
512
519
527
535
540
543
544
543
538
531
524
516
508
500
494
491
489
490
494
501
508
516
524
531
537
542
543
543
538
531
524
515
508
500
494
489
488
490
494
499
507
514
521
528
533
537
538
536
532
526
519
511
503
495
489
485
484
484
488
494
502
510
517
524
530
534
536
535
531
526
518
510
502
494
488
485
483
485
489
495
503
510
518
524
530
534
534
533
528
523
514
505
497
490
485
481
480
482
486
492
500
507
515
522
527
531
533
531
527
520
512
504
496
489
483
480
479
480
484
491
498
507
515
521
527
531
531
531
526
519
512
504
495
487
482
479
478
480
484
491
499
508
516
523
529
533
535
534
530
523
515
507
498
490
484
480
479
481
484
490
497
505
513
520
526
530
532
531
527
520
513
505
497
490
485
481
480
481
485
491
498
507
515
523
528
533
534
532
528
521
514
506
498
491
485
482
482
483
487
494
503
511
519
527
533
537
539
537
533
526
518
510
502
495
489
487
486
487
491
497
505
513
522
529
534
538
539
537
533
526
519
511
503
496
490
487
486
487
491
496
505
512
521
528
534
536
537
536
530
523
515
506
498
490
484
480
479
480
484
491
499
507
516
524
530
535
536
534
529
523
516
508
501
493
487
484
482
484
487
494
502
510
518
524
529
532
533
531
527
520
512
504
495
487
481
477
476
477
480
487
494
501
508
514
518
520
519
516
511
504
495
487
478
470
465
461
459
460
464
471
478
485
492
498
503
507
508
506
502
496
490
482
476
470
465
462
462
464
468
475
484
494
503
511
516
521
524
524
520
515
508
500
493
486
480
478
476
479
483
489
497
505
513
520
526
529
531
528
524
518
511
504
495
488
483
480
479
480
484
490
497
505
513
519
524
528
529
527
523
516
508
501
493
486
480
475
472
473
476
482
487
493
496
496
494
488
478
463
443
419
393
366
338
310
287
267
251
241
237
238
242
246
251
257
265
277
292
307
321
335
349
366
386
412
447
489
541
590
635
674
705
729
748
761
767
767
760
747
729
707
684
660
638
617
600
584
571
561
556
554
554
555
556
558
559
559
557
553
547
540
531
523
515
509
503
499
498
499
503
509
516
524
531
539
544
547
547
545
540
533
526
518
509
503
497
494
492
494
499
505
513
520
528
535
540
543
543
542
537
531
523
515
507
500
495
492
491
493
496
503
511
518
526
533
539
541
542
540
535
529
521
512
504
497
491
487
486
486
489
495
501
508
515
522
527
529
530
527
523
515
508
500
492
485
480
476
476
479
483
490
499
508
516
524
529
532
534
533
527
521
514
506
498
491
486
483
483
485
490
496
504
511
519
525
530
532
534
531
526
519
511
504
495
487
482
480
479
481
485
492
499
508
515
522
527
530
531
529
524
516
508
499
491
484
478
475
473
475
480
486
494
502
510
516
521
524
524
520
515
508
499
490
483
476
470
467
466
469
473
480
487
495
502
508
512
515
515
512
507
500
492
483
475
468
463
460
459
461
466
472
481
489
497
504
508
512
512
511
507
500
492
484
476
469
464
461
460
463
468
475
483
492
500
508
513
516
518
515
511
505
497
489
482
475
470
467
466
468
472
479
486
494
502
509
514
518
518
516
512
505
498
490
483
476
470
469
468
472
477
484
492
501
510
516
522
526
527
526
521
516
509
502
496
489
485
483
483
487
494
502
512
521
530
539
545
549
551
550
548
543
536
529
523
518
514
513
513
516
524
532
541
551
559
567
572
577
579
579
575
569
562
555
547
542
538
536
536
540
545
552
561
571
579
586
591
595
595
593
588
582
574
565
558
551
546
544
543
545
550
556
563
572
579
586
591
593
594
591
586
579
571
562
555
547
542
539
537
539
544
551
558
566
574
579
583
585
585
582
576
569
560
552
544
537
531
527
525
527
530
536
543
551
557
563
568
570
569
567
560
553
544
535
527
519
514
511
510
512
516
521
529
537
544
551
556
558
558
555
550
542
534
525
517
510
504
501
500
502
507
514
522
530
539
547
552
555
556
553
548
542
534
525
516
509
504
501
500
503
507
514
521
529
538
544
549
552
553
551
545
539
531
522
515
508
502
499
498
500
504
511
518
526
534
541
546
549
549
547
542
535
526
518
510
504
498
496
495
496
502
509
517
525
533
540
544
546
547
544
539
531
523
514
506
499
494
491
490
492
496
503
511
519
527
532
538
540
541
538
533
526
518
510
503
496
491
488
487
489
495
501
510
518
526
533
538
541
541
539
534
526
519
511
504
497
492
489
488
490
496
503
512
519
527
535
539
542
543
540
534
526
518
509
501
495
489
487
487
489
494
501
510
517
524
531
536
540
541
539
534
527
519
512
504
497
492
490
490
492
497
504
512
519
527
534
538
541
541
538
533
526
518
511
503
496
492
489
489
492
498
504
512
519
527
535
539
542
541
538
533
525
517
508
500
492
487
484
484
487
492
498
506
513
521
527
532
536
536
534
528
521
513
504
497
491
486
484
484
486
492
499
507
515
522
528
532
536
535
532
527
519
511
503
495
488
483
481
481
483
489
496
505
514
523
530
534
536
536
534
527
520
512
503
496
489
484
481
481
484
489
496
504
512
520
528
532
535
535
532
527
519
511
502
495
488
483
481
480
483
488
495
504
512
519
526
531
535
536
534
528
521
513
505
497
490
485
483
483
485
490
497
505
513
521
528
532
536
536
533
527
521
513
504
496
489
485
482
482
485
490
497
505
514
522
528
533
536
536
533
528
520
512
504
496
489
484
482
482
486
491
499
507
515
524
530
535
538
538
535
528
520
512
503
495
487
481
478
476
477
481
487
495
503
511
518
523
525
525
522
516
509
500
491
483
476
471
467
467
469
475
483
493
502
511
518
524
529
530
528
523
517
510
502
495
490
486
485
486
490
496
503
512
521
529
537
542
545
546
543
538
532
524
516
508
501
496
493
492
495
500
507
515
523
531
538
543
544
544
541
536
527
519
510
502
495
490
487
487
489
494
501
509
516
524
530
534
535
535
531
524
515
506
495
483
469
455
444
433
422
412
402
391
379
366
351
336
321
306
291
276
261
250
239
227
221
218
223
237
255
275
298
326
356
389
428
473
523
579
628
667
696
715
725
729
730
727
721
712
703
694
686
679
673
666
660
652
641
629
615
600
585
570
555
541
530
522
516
513
513
516
521
529
537
544
550
555
558
557
554
547
540
531
522
514
507
501
499
498
501
507
514
522
530
537
543
547
548
548
544
539
531
523
514
507
499
495
492
492
495
499
506
514
521
529
535
539
542
542
538
533
525
518
509
501
493
487
484
483
486
490
497
505
513
520
526
530
532
532
529
522
513
507
499
492
485
480
477
477
480
484
492
499
508
515
521
525
528
528
526
520
513
505
498
491
484
480
477
478
480
486
492
500
508
516
522
527
530
530
528
522
514
505
497
489
482
476
473
473
476
481
488
496
504
511
518
521
524
523
519
514
505
497
489
481
476
471
468
468
470
475
481
489
497
504
511
515
519
518
514
509
502
494
486
478
472
466
464
463
465
470
476
484
492
499
505
510
512
511
508
502
495
487
478
470
464
459
457
457
459
464
472
480
487
495
501
505
507
507
503
496
488
480
473
464
456
452
450
450
452
456
463
472
479
487
493
497
500
500
497
492
485
477
468
460
454
449
448
448
452
457
466
474
482
490
497
501
504
503
499
495
487
479
471
464
458
454
453
454
457
464
472
481
490
499
506
511
514
515
512
508
501
495
487
480
476
471
470
470
474
481
489
498
508
519
526
531
535
536
536
531
525
518
511
504
499
495
494
496
501
509
518
527
537
547
556
562
565
566
564
560
553
547
540
532
527
524
523
525
529
536
544
553
563
572
579
585
588
588
585
579
571
564
556
549
543
539
537
538
541
547
554
563
571
579
585
589
591
591
588
583
575
568
559
551
545
541
539
539
542
548
555
563
571
577
583
587
588
586
582
576
568
559
550
542
535
530
528
528
532
537
544
553
560
567
573
577
577
576
571
565
558
549
540
531
524
518
517
516
519
525
531
538
546
553
559
563
564
563
560
553
545
536
527
519
513
507
504
504
507
512
519
527
535
542
548
551
554
554
551
545
537
529
521
513
507
502
500
499
502
507
514
521
529
537
543
546
548
547
543
537
529
521
513
505
499
495
493
493
497
503
510
518
526
533
539
544
546
545
542
536
528
520
513
504
497
493
491
491
495
500
508
516
524
533
539
542
544
543
539
533
526
518
510
503
497
492
491
490
494
500
507
515
522
529
537
542
545
543
540
534
527
518
510
503
497
493
492
492
495
501
508
517
526
533
539
543
545
545
542
536
528
520
512
504
497
493
492
492
496
502
508
515
523
530
535
538
541
540
535
527
519
512
504
497
490
486
484
485
489
496
503
511
519
528
535
539
541
541
537
532
524
516
507
499
492
487
485
485
488
494
501
509
517
525
531
535
537
537
533
527
519
512
503
496
488
484
483
484
487
494
501
509
518
526
532
537
540
539
535
529
521
512
505
497
492
487
486
485
489
494
502
511
519
526
532
536
538
537
534
527
519
511
503
496
490
486
484
485
489
495
502
509
518
524
530
534
536
535
531
524
516
509
500
493
487
483
482
483
487
493
500
509
517
525
531
536
539
538
534
528
521
513
505
497
490
485
483
483
487
492
499
508
515
523
529
534
537
536
530
523
514
507
499
492
486
481
480
481
484
491
499
508
516
524
530
534
535
533
528
521
513
505
496
488
481
477
476
476
480
486
492
501
509
515
521
524
525
523
519
513
504
495
487
479
472
468
466
467
470
476
483
492
502
511
518
522
525
526
524
519
513
507
500
494
488
485
484
487
491
497
506
514
522
530
536
540
542
541
537
532
524
515
507
500
494
489
488
488
492
497
505
513
522
529
535
539
540
539
535
529
521
513
504
495
488
484
483
484
489
495
502
510
518
524
528
531
532
530
525
517
507
496
482
468
454
440
427
414
403
392
382
370
358
344
330
317
303
290
277
264
252
240
228
221
219
222
234
250
270
294
321
353
388
429
477
528
587
636
674
703
718
726
729
728
723
716
706
696
685
676
668
663
656
650
643
633
623
612
599
585
571
556
543
531
520
513
509
507
509
513
519
527
534
541
547
550
551
550
546
540
531
523
515
507
501
496
495
496
499
505
512
521
529
536
541
545
547
545
540
534
526
517
508
501
495
491
490
491
496
501
508
516
524
531
536
540
541
540
535
527
519
511
504
496
490
486
484
485
489
496
503
511
519
526
532
536
537
536
531
524
516
508
499
492
486
481
480
481
484
491
498
507
514
521
528
532
534
533
528
522
515
506
499
492
486
481
480
482
486
492
499
508
516
523
528
531
534
532
527
521
512
504
496
488
483
478
475
476
479
485
493
501
509
516
521
524
526
525
520
515
507
499
491
483
479
475
473
474
479
484
492
501
509
516
521
525
527
525
520
514
506
497
488
480
474
470
468
469
474
480
487
496
503
510
515
518
520
519
514
508
499
491
482
475
468
464
463
464
467
473
480
487
495
502
508
511
513
512
507
500
492
483
475
467
461
456
454
455
458
464
472
480
488
495
501
505
505
504
500
494
486
478
470
463
457
454
453
454
459
465
473
480
490
498
504
508
509
508
504
497
490
482
473
467
462
458
456
457
461
468
476
485
493
500
506
510
512
512
509
504
496
489
481
475
470
467
467
470
476
484
493
503
513
522
529
535
539
539
536
532
526
519
513
508
504
502
502
505
511
519
527
537
547
556
564
569
572
572
569
564
558
551
544
538
534
531
530
532
537
545
553
562
571
579
585
589
591
590
586
579
571
563
555
548
542
538
537
539
543
550
557
566
574
581
586
589
591
590
585
577
569
562
553
545
539
535
533
533
537
543
551
559
567
574
579
582
583
581
576
569
560
552
544
537
531
526
525
526
529
535
543
551
558
564
569
572
574
571
567
560
551
544
536
528
522
518
516
516
519
525
532
540
548
554
559
562
563
560
556
548
540
531
523
516
510
506
505
506
510
516
524
532
540
546
551
555
556
553
549
542
534
525
516
509
504
500
497
498
502
509
516
524
532
539
544
548
549
547
543
536
527
518
510
503
497
494
493
495
499
505
513
521
529
536
542
546
547
544
540
534
526
518
510
502
496
493
492
493
497
503
510
518
525
532
538
542
543
541
537
531
523
516
508
500
494
491
490
492
496
502
511
519
527
534
540
543
544
542
539
532
524
515
507
499
493
490
489
490
495
501
508
516
524
532
537
541
542
539
535
528
521
512
505
498
492
488
488
490
494
501
508
517
524
531
537
540
542
540
536
529
521
513
505
498
493
489
489
490
494
501
509
517
524
531
537
540
541
539
534
528
519
512
504
497
491
487
487
488
492
498
506
515
523
530
536
539
540
538
533
526
518
510
502
495
489
487
485
487
491
498
505
514
522
529
534
537
539
537
533
526
518
510
502
495
489
486
485
487
492
497
505
513
521
528
534
537
538
536
531
524
516
508
500
493
487
483
483
484
490
497
504
513
521
529
535
538
539
537
531
523
514
505
496
488
483
479
477
479
483
488
496
505
512
519
524
527
528
527
522
515
506
497
489
481
476
472
471
472
476
482
490
499
507
515
521
524
527
527
524
519
512
505
499
492
488
485
484
487
492
500
508
518
527
534
540
543
543
541
537
530
523
515
506
499
495
491
489
489
494
501
509
517
525
532
537
540
542
540
536
529
521
513
504
496
491
488
487
488
492
498
506
513
520
527
532
535
536
533
527
520
512
503
494
484
474
464
455
448
442
435
429
421
411
398
383
366
347
328
309
291
274
258
247
235
224
216
213
217
230
248
269
291
313
336
364
395
432
473
521
571
613
649
677
694
706
713
716
716
712
707
701
695
687
679
669
658
646
632
615
599
583
568
555
543
534
526
523
522
524
528
533
541
546
553
558
561
562
560
554
547
538
530
522
516
510
506
505
506
510
516
524
532
539
546
551
554
555
552
547
539
531
523
515
508
502
498
497
500
505
511
519
527
534
540
545
547
547
544
540
532
524
516
508
500
494
491
490
493
497
503
510
518
526
533
538
540
541
538
533
526
517
509
500
492
487
483
483
485
489
495
503
512
518
525
530
533
534
532
527
521
513
506
499
492
486
483
482
484
489
496
503
512
519
525
531
533
534
531
527
520
512
504
496
488
483
480
479
480
485
491
499
506
513
519
524
526
526
524
518
511
503
495
486
479
473
470
470
472
476
483
490
498
506
512
517
519
520
517
512
505
497
489
481
474
470
466
465
467
471
477
485
493
501
507
512
515
516
513
509
502
494
486
478
470
464
461
462
463
468
475
481
490
497
503
508
511
511
508
503
496
487
480
471
464
458
455
454
455
460
466
473
481
489
496
500
504
504
502
496
489
481
473
466
459
453
450
449
451
456
463
471
478
486
493
499
502
503
501
497
490
482
474
467
461
456
453
453
456
461
468
476
484
493
500
506
509
511
510
507
500
494
487
479
475
471
469
471
473
479
487
497
507
516
524
531
536
539
537
534
529
522
515
509
505
502
501
503
506
512
520
530
540
550
559
565
569
572
572
569
563
557
550
543
538
534
533
533
536
543
551
559
568
575
582
588
592
594
591
586
579
571
563
555
549
543
540
540
542
546
553
560
568
576
583
587
589
590
587
582
574
566
558
550
543
538
536
535
536
541
547
554
563
570
576
580
583
583
579
574
568
559
551
543
536
531
527
526
527
531
538
545
553
561
568
573
574
575
572
567
559
551
543
535
527
522
518
518
519
523
529
536
544
552
559
564
566
566
562
556
550
540
532
524
516
511
508
508
511
515
520
527
535
542
548
553
556
556
553
547
540
531
524
516
509
504
501
500
503
508
515
523
530
537
543
547
550
550
547
542
535
526
518
510
504
498
495
494
496
501
507
514
523
530
537
543
546
546
544
538
531
522
513
506
499
494
490
490
492
497
504
512
521
527
534
538
541
542
539
535
527
519
512
504
497
492
490
489
492
496
503
511
519
526
533
539
541
542
540
535
528
520
512
505
498
493
491
491
493
498
506
513
521
529
536
541
544
545
543
538
531
523
515
508
501
496
494
494
496
501
508
515
523
531
538
544
545
546
543
538
531
523
515
507
500
495
492
492
494
499
506
514
523
531
537
542
544
544
540
536
528
520
513
505
499
493
490
491
493
497
504
512
520
528
535
540
543
544
540
534
527
519
512
504
497
492
489
489
492
497
504
511
518
526
532
537
539
539
536
532
525
517
508
500
493
488
485
485
487
492
499
506
514
521
528
533
535
536
532
527
519
511
504
497
490
485
482
482
484
489
496
504
512
519
525
530
534
534
531
525
518
509
501
493
486
482
479
479
482
487
494
502
511
519
526
530
533
534
531
525
518
510
502
494
487
482
480
479
481
486
493
500
508
515
522
526
529
529
527
521
514
506
499
491
484
481
478
478
479
484
492
499
508
516
524
528
530
531
527
522
515
507
499
492
486
481
479
479
481
486
492
499
508
515
523
527
529
530
526
521
514
505
497
490
483
478
476
476
479
484
491
499
507
514
520
525
527
527
524
519
512
504
497
489
483
478
476
476
479
484
491
499
507
515
521
526
528
529
526
521
514
505
497
490
483
479
476
476
479
484
491
498
507
514
521
526
528
529
526
521
514
505
498
490
484
479
476
476
480
485
491
499
507
514
521
526
527
527
523
517
510
500
491
483
476
471
468
470
472
477
484
491
499
507
513
519
521
522
519
513
505
497
489
481
475
470
467
466
469
475
482
490
500
508
515
521
524
527
525
521
516
510
503
495
490
486
484
485
488
494
501
511
519
527
534
538
541
542
539
533
526
518
511
503
497
493
491
491
494
499
506
514
521
528
534
540
542
542
538
532
526
518
510
502
496
491
489
488
491
495
501
509
517
524
530
534
534
534
530
524
516
507
497
486
474
463
452
443
433
425
417
408
398
386
372
359
345
331
315
300
285
271
260
248
236
226
222
224
235
250
268
286
307
330
358
390
427
469
518
567
608
642
668
684
693
697
697
696
689
683
678
671
666
661
654
646
636
625
612
599
584
571
557
545
534
526
520
518
519
523
528
535
543
549
555
559
561
561
558
551
545
536
528
520
513
508
505
505
508
513
519
527
534
541
547
551
554
553
549
543
536
528
521
512
505
500
497
497
500
505
512
519
527
535
540
544
546
547
543
537
529
520
512
504
498
493
489
489
492
497
504
512
520
527
533
537
538
537
535
529
521
512
504
496
489
484
482
482
484
490
497
505
514
522
528
532
534
534
531
525
519
510
502
494
488
484
481
481
484
489
496
504
512
519
525
530
532
532
529
523
516
508
501
493
486
481
479
479
482
487
493
501
509
516
522
527
529
529
526
519
512
504
496
488
482
478
475
476
478
483
490
498
506
513
519
523
524
524
521
514
507
498
491
483
477
472
470
470
473
478
485
492
501
507
513
517
518
518
514
508
501
492
485
478
471
466
463
464
467
472
479
486
495
502
508
511
513
512
510
504
496
487
479
471
464
460
456
456
459
464
471
478
487
495
502
507
508
508
504
498
490
482
473
466
460
455
452
454
457
463
470
477
486
493
500
505
508
507
504
498
491
483
476
468
463
459
457
459
462
467
474
481
490
497
504
509
511
512
508
504
497
489
483
476
471
467
466
467
471
478
486
495
505
514
521
526
530
531
529
525
520
513
507
501
497
494
494
496
501
508
516
526
536
544
552
558
562
564
562
558
552
546
540
534
528
526
525
527
531
538
547
556
565
573
580
584
587
588
585
580
574
566
558
550
544
540
538
539
542
547
555
563
572
579
585
589
591
590
587
581
573
564
557
549
543
538
535
536
538
543
550
557
565
572
578
582
583
583
578
572
564
555
548
540
533
528
526
527
529
534
541
548
557
564
569
573
574
574
569
563
555
546
538
530
524
519
516
517
519
525
531
538
546
553
559
563
564
564
560
553
545
537
528
520
514
509
507
507
510
515
522
529
538
545
551
555
556
556
552
547
540
532
526
519
512
507
504
505
508
514
521
527
536
542
548
551
553
551
547
541
533
525
518
510
504
500
497
498
501
507
513
521
529
536
543
548
550
550
546
540
532
524
516
508
503
498
496
496
499
504
511
519
527
535
540
544
546
545
541
536
528
519
513
505
499
496
494
496
499
505
513
519
528
535
540
544
546
546
542
536
529
520
513
506
500
496
494
496
499
504
511
518
525
532
539
543
544
544
540
535
527
519
511
504
498
495
493
495
498
504
512
520
529
537
544
548
550
549
545
539
531
522
514
507
500
496
494
495
499
504
511
518
526
532
538
542
543
543
539
534
526
518
510
502
496
493
491
492
495
501
509
518
526
534
541
547
550
549
546
541
534
525
516
509
503
498
496
496
499
503
509
515
521
527
531
533
533
531
527
520
513
505
499
492
487
483
481
483
487
492
499
508
516
523
529
534
535
535
531
526
519
511
504
496
490
487
485
486
489
496
503
511
519
527
532
536
537
536
532
527
519
510
502
495
489
484
483
484
487
494
500
508
516
523
529
533
535
534
530
524
517
510
502
494
487
483
481
482
486
492
499
507
515
521
527
531
532
532
528
523
515
507
499
493
487
484
482
483
486
492
499
507
514
520
526
529
531
531
527
522
515
508
500
492
487
483
482
483
487
494
500
508
516
523
528
532
534
533
529
523
515
507
499
492
486
483
481
482
485
491
499
507
515
522
527
531
531
530
527
520
512
504
496
489
483
479
477
478
482
487
494
502
510
517
523
526
527
526
522
516
508
500
494
487
481
478
477
478
481
486
493
502
511
518
524
528
529
529
525
519
511
503
495
487
481
477
475
477
480
487
494
502
511
518
524
527
528
527
522
515
508
500
493
487
481
478
477
478
481
486
494
502
511
518
524
528
530
528
525
518
511
502
495
487
482
478
476
478
482
488
495
503
511
517
523
527
528
527
524
518
511
504
497
490
485
481
480
481
484
490
497
504
512
518
523
527
528
527
523
516
508
499
493
486
481
477
476
478
482
487
495
504
513
519
526
529
530
530
527
521
514
506
499
492
487
483
481
483
486
491
498
505
513
520
526
529
530
529
524
518
511
503
495
487
482
479
478
480
484
491
499
507
514
519
524
526
525
523
519
512
504
496
488
480
473
468
464
465
467
473
481
489
498
506
513
517
518
517
513
507
499
491
483
476
470
468
467
471
475
482
491
500
510
518
524
529
532
532
527
522
515
508
503
496
492
489
488
490
494
499
507
514
523
530
536
540
541
540
536
530
523
515
507
499
493
489
487
488
493
499
505
513
521
527
533
535
536
534
528
522
514
507
499
492
486
482
480
482
485
491
498
506
513
519
524
526
526
524
520
514
505
494
483
470
456
444
431
418
407
397
386
374
362
349
337
324
312
300
288
276
264
253
240
228
221
219
224
237
254
274
298
327
358
393
434
480
529
582
623
657
682
696
704
707
707
705
699
692
684
676
670
664
660
654
647
639
630
619
605
591
576
561
548
536
527
520
516
515
516
520
527
534
541
547
554
557
558
557
553
547
539
530
522
515
510
507
505
508
511
516
523
529
537
543
548
551
551
550
545
538
531
522
514
507
501
497
496
498
501
507
515
521
529
536
542
545
546
546
542
535
527
519
511
504
498
494
492
493
496
502
508
516
523
528
533
535
535
533
527
521
513
504
497
490
484
481
480
483
488
495
503
511
519
524
529
533
534
532
527
521
513
505
499
492
486
482
481
483
487
494
502
509
518
525
531
535
536
534
529
523
516
508
501
494
488
485
482
483
486
492
500
508
515
522
528
532
533
531
526
519
511
501
494
487
481
478
476
477
480
486
493
500
508
515
519
523
524
522
518
511
504
495
487
479
473
470
469
471
475
480
486
494
502
508
512
515
515
514
510
503
496
489
482
475
470
467
467
469
472
476
483
490
497
503
507
510
511
508
504
497
489
481
474
466
461
457
455
457
461
467
473
480
488
494
499
502
503
502
497
491
483
474
467
460
455
452
450
452
455
463
471
479
488
496
502
506
508
507
503
497
491
483
476
469
464
461
461
463
467
473
480
488
497
506
512
516
518
518
514
508
501
494
487
481
478
475
475
479
484
491
499
508
517
524
531
536
538
538
535
530
524
517
511
505
501
498
498
500
505
512
521
531
540
548
555
560
563
564
561
556
551
544
539
533
528
526
526
528
532
539
547
555
564
571
577
582
583
583
578
572
564
556
549
542
538
535
534
537
541
547
556
564
573
579
585
590
591
590
585
579
572
564
557
550
545
542
541
544
547
553
560
567
575
581
585
587
587
585
580
574
567
559
552
545
540
534
532
534
536
541
547
553
561
567
571
574
575
573
569
563
554
546
539
531
526
523
521
522
525
530
536
543
549
554
557
558
558
554
548
541
533
525
518
511
507
504
503
506
511
517
524
531
539
544
550
552
553
552
547
540
532
524
517
510
505
502
500
503
507
513
520
528
536
542
546
550
551
550
545
539
532
524
518
511
507
503
502
504
509
515
523
531
538
544
549
551
551
549
543
536
527
519
512
505
499
496
495
497
502
508
515
523
531
537
543
546
547
545
540
534
526
518
510
503
497
495
494
496
501
508
515
523
531
537
542
544
543
542
537
530
524
516
509
503
497
494
493
496
500
507
515
523
531
539
545
550
552
551
547
542
533
524
517
510
505
502
502
504
509
515
522
530
537
543
548
551
551
550
545
539
531
523
515
508
502
499
497
499
503
508
515
523
529
536
541
544
544
543
538
531
523
515
508
502
496
492
491
491
495
500
507
515
524
531
538
541
543
542
538
532
524
516
509
502
497
493
492
496
500
508
516
525
534
541
547
550
552
551
547
542
535
528
521
515
511
508
507
510
514
521
528
535
543
548
553
555
556
553
548
542
534
527
520
512
507
504
504
507
512
518
526
532
540
545
551
553
553
551
545
539
530
523
515
507
501
497
496
498
501
507
513
519
527
533
537
540
540
537
532
525
518
509
503
496
491
487
485
487
491
497
503
510
518
524
529
532
534
531
526
519
512
503
496
489
485
482
481
483
487
494
501
509
516
523
527
529
529
527
522
516
509
502
495
489
484
481
480
483
487
494
502
509
516
523
527
529
529
527
521
515
508
501
494
487
481
478
478
480
484
490
497
504
511
517
521
524
524
523
519
512
505
498
491
484
480
477
476
478
482
489
497
505
513
518
523
526
527
524
520
513
505
497
490
483
478
475
475
478
481
488
495
503
511
516
521
523
524
521
516
509
501
493
486
479
474
471
470
471
475
481
488
497
505
511
516
519
521
519
515
510
503
494
487
480
475
471
470
472
476
482
489
497
505
512
517
520
521
519
513
505
496
487
481
475
471
469
469
473
479
486
495
504
514
523
529
533
536
536
531
526
519
512
506
500
497
496
496
499
504
511
519
527
534
540
543
545
544
542
535
528
519
511
504
497
492
488
487
491
495
500
507
513
519
524
528
530
529
527
522
515
507
498
489
482
476
472
471
473
477
483
490
497
504
510
513
514
513
511
506
499
489
477
464
451
438
424
412
400
390
381
371
359
347
334
319
304
289
275
262
249
239
228
217
208
204
204
211
223
240
259
284
312
346
385
432
483
543
598
641
677
699
711
719
720
720
716
709
702
694
687
680
673
667
659
652
643
632
619
604
589
573
558
544
531
521
514
510
509
512
515
521
528
535
540
545
547
547
543
538
530
521
512
505
498
493
490
489
492
495
501
508
516
524
529
534
537
537
536
530
524
516
509
502
495
489
487
487
491
495
501
509
516
524
531
535
537
538
536
531
524
516
508
500
493
488
485
484
487
492
499
506
512
520
526
531
533
532
530
524
517
508
500
493
486
480
478
477
480
485
492
499
507
514
519
524
527
527
525
519
512
505
497
489
483
478
476
476
479
484
491
499
506
515
521
526
528
529
527
522
515
507
499
492
485
480
478
478
481
486
492
500
508
516
522
527
529
530
527
522
514
507
499
492
486
480
477
476
479
483
491
498
506
514
520
524
526
526
523
518
512
504
495
488
481
476
474
473
476
480
487
495
503
510
515
518
520
519
516
510
502
494
486
478
472
466
463
463
465
470
476
483
491
498
504
508
510
511
508
503
496
488
480
472
466
461
459
458
461
465
472
479
487
495
500
505
507
508
506
500
494
486
478
470
464
459
457
457
461
466
474
481
489
497
504
509
511
512
510
505
498
492
483
477
471
466
465
465
469
474
481
489
498
508
514
520
524
524
523
518
513
507
499
493
488
485
484
485
489
496
504
514
522
531
538
544
548
549
548
543
539
532
525
520
516
514
513
514
519
526
534
543
552
562
570
576
580
582
580
576
571
566
559
552
547
544
542
543
547
553
561
569
577
586
591
596
599
600
597
593
587
580
572
564
558
551
548
546
549
553
560
569
578
586
593
599
602
602
600
595
588
581
572
564
556
551
547
546
549
554
559
566
573
580
586
591
592
592
589
583
576
568
559
552
545
541
538
537
539
543
549
555
561
569
574
578
579
579
576
569
560
552
543
534
527
522
519
519
522
526
532
539
546
554
558
563
565
563
560
551
544
534
524
514
508
501
495
488
489
489
493
495
499
502
496
496
500
499
497
493
494
496
497
495
496
497
495
494
500
500
504
510
519
529
538
543
538
542
548
540
531
520
513
517
515
508
499
495
497
499
502
510
516
519
522
525
528
528
526
521
515
507
497
489
482
474
471
469
473
482
490
496
502
509
511
512
513
506
497
491
485
477
469
463
456
452
448
451
454
460
472
481
487
495
499
507
509
508
507
502
495
487
480
471
467
465
464
468
472
475
482
493
503
513
521
529
534
536
536
531
524
516
511
505
500
499
498
497
500
506
514
524
534
544
551
557
560
561
558
552
545
536
528
520
513
509
507
506
510
516
523
531
540
549
556
561
564
565
562
555
547
538
528
520
513
508
506
505
509
514
523
531
539
547
553
559
561
561
559
552
544
535
526
519
513
508
507
507
512
518
526
536
545
553
560
567
570
571
569
563
555
547
538
530
524
519
516
516
520
527
534
542
551
560
567
572
575
574
571
563
556
547
537
529
521
516
512
512
515
521
528
536
544
552
559
563
565
564
560
554
546
537
527
519
512
508
504
503
507
512
520
529
538
547
553
558
560
559
556
549
541
532
524
516
509
504
501
500
503
508
515
524
532
541
548
551
553
552
550
543
535
525
516
509
501
497
495
494
497
503
510
518
526
535
543
547
550
549
546
538
528
520
511
503
496
492
491
492
495
500
508
518
525
532
538
543
546
546
540
533
526
517
507
500
493
489
487
487
491
496
503
511
519
527
534
539
541
540
538
531
524
514
505
498
491
485
482
481
484
491
499
506
515
523
528
534
536
535
531
524
515
505
495
487
479
473
471
471
474
480
487
496
506
515
521
526
529
528
524
518
510
502
492
485
477
473
471
471
475
481
488
497
505
514
521
527
530
529
526
520
512
503
494
484
477
473
471
471
475
481
489
499
508
518
525
532
534
533
529
523
514
504
493
484
475
470
467
465
469
475
484
492
501
509
516
520
522
521
519
512
505
496
486
478
470
465
463
463
467
473
482
492
502
512
520
527
531
531
528
523
516
508
500
492
486
481
478
479
484
491
502
511
521
530
538
544
547
548
545
540
532
523
515
507
500
495
494
494
498
504
512
521
531
539
547
551
553
552
549
541
531
523
513
506
498
493
491
493
499
505
513
522
531
540
546
550
552
551
548
541
531
522
512
504
495
489
486
483
481
483
486
489
485
480
472
461
445
423
397
373
348
322
299
279
260
247
239
235
235
233
233
240
249
262
276
286
294
301
306
318
336
360
391
437
491
544
596
639
674
699
713
721
732
736
731
723
706
691
677
656
635
615
593
579
565
554
543
539
543
546
552
559
563
571
576
579
578
574
570
564
555
545
535
527
519
512
508
508
512
519
527
538
546
553
559
563
567
566
561
551
543
539
530
523
515
510
507
506
511
515
521
530
538
546
551
553
554
553
549
541
532
523
512
504
496
492
489
488
492
498
505
513
524
532
536
540
542
540
535
528
519
509
499
490
482
478
475
475
478
484
492
500
508
517
523
526
530
529
526
519
510
501
491
482
476
473
471
472
476
482
492
500
510
519
525
530
532
531
527
519
511
502
493
485
479
475
472
472
476
481
489
499
508
516
522
526
528
528
524
516
508
500
490
482
475
470
468
468
472
480
487
496
504
512
518
523
524
524
521
514
504
495
486
478
470
467
465
466
470
475
483
492
500
508
515
519
520
519
517
510
501
491
482
475
468
464
463
464
468
475
482
492
502
510
515
520
521
520
516
509
501
492
482
474
467
463
461
461
465
472
481
490
499
506
512
516
518
517
513
507
497
487
476
467
458
451
447
445
449
454
462
471
480
488
495
500
502
501
498
491
483
474
465
457
450
446
444
445
450
457
466
475
484
493
500
505
508
507
503
497
490
481
472
465
458
455
454
455
462
469
479
489
499
509
516
521
525
525
523
517
511
504
497
492
487
485
485
487
494
503
512
522
533
543
551
558
561
561
559
554
548
541
532
526
521
519
519
521
527
535
543
552
562
572
579
583
586
586
582
575
567
558
550
543
536
532
531
531
536
544
552
560
569
576
583
589
590
589
587
579
570
560
550
542
536
532
531
532
537
543
550
558
566
573
580
583
584
582
577
570
561
551
543
535
528
522
520
521
526
531
539
547
555
562
569
572
573
572
568
560
552
543
535
526
519
515
513
513
517
524
532
541
550
558
564
568
568
567
561
554
544
536
527
519
512
508
505
505
510
515
524
532
540
548
555
559
561
560
556
550
541
532
522
514
508
504
502
503
507
513
521
529
537
546
552
556
558
556
551
544
536
526
516
509
504
499
498
499
503
509
517
526
533
541
547
552
554
553
548
540
532
522
512
505
499
496
494
495
499
505
512
521
531
539
544
549
550
548
544
537
530
521
512
504
497
493
491
492
497
503
510
519
527
537
544
548
549
547
543
537
528
519
511
504
497
493
492
493
498
504
512
521
530
538
543
547
547
546
542
536
527
518
510
503
500
495
492
494
498
504
512
521
530
537
544
548
550
547
543
537
529
520
511
504
497
493
491
492
496
503
511
519
527
535
540
544
545
543
539
532
524
515
507
500
493
489
488
489
494
500
508
517
525
533
538
542
544
540
537
531
522
512
503
496
490
487
485
487
491
497
504
513
521
528
534
539
540
537
534
527
519
510
501
494
487
483
482
483
488
494
502
511
518
527
531
536
537
535
531
524
515
506
497
490
483
479
477
479
484
488
496
505
513
522
527
531
532
531
527
520
512
503
495
487
481
477
476
477
483
489
497
506
514
521
527
529
530
528
523
517
508
499
491
483
478
474
472
473
478
485
492
501
510
516
523
527
527
526
523
515
507
499
489
482
476
473
471
472
478
484
492
501
510
518
523
527
529
527
521
514
506
497
488
481
475
471
470
471
476
483
493
502
511
519
525
528
529
527
522
514
506
499
489
480
475
472
471
472
476
482
490
499
507
515
522
526
528
527
522
516
507
499
490
483
476
474
473
475
480
488
496
504
512
520
527
530
532
529
525
519
512
504
495
488
481
478
477
478
483
490
497
507
515
523
528
532
535
532
527
521
513
504
495
487
481
477
475
476
482
489
499
508
516
525
531
535
536
533
528
521
513
504
495
488
483
479
478
480
486
492
500
509
516
525
530
533
535
533
530
524
514
506
498
491
484
481
480
481
486
493
501
510
519
529
535
539
538
536
531
524
516
507
499
492
487
483
481
482
487
493
501
510
518
525
531
535
536
534
530
523
515
506
497
490
483
480
479
483
487
494
503
511
519
527
533
536
536
535
530
521
513
504
495
487
480
477
476
476
480
487
496
503
511
518
523
527
527
525
520
513
505
496
487
479
472
468
467
468
472
480
489
498
507
515
523
527
531
531
528
522
513
505
496
490
483
480
480
481
487
494
504
512
523
531
537
542
543
541
537
529
520
512
504
497
491
487
486
487
493
500
509
518
527
535
540
543
544
542
537
529
520
511
502
494
487
483
482
483
488
494
501
511
519
527
532
535
536
533
528
520
511
502
492
484
476
470
465
462
460
457
456
452
446
439
428
413
394
372
349
324
303
282
264
248
237
231
227
224
224
229
239
253
271
288
304
317
332
350
372
398
430
471
517
560
600
634
661
681
698
708
716
719
716
711
703
692
680
665
648
628
609
591
573
558
546
537
531
528
529
532
539
545
551
557
560
562
562
560
555
546
537
527
518
511
504
500
499
502
507
514
522
531
540
547
551
554
555
552
546
538
530
520
512
504
499
495
493
495
500
508
516
524
533
542
547
551
551
548
543
535
526
517
508
500
493
489
488
490
495
503
511
519
527
534
540
543
543
541
537
529
520
512
503
496
489
485
484
487
491
499
507
516
525
533
537
541
542
539
535
527
518
508
499
492
486
482
481
483
489
496
504
513
521
530
535
539
539
536
531
524
515
507
497
491
484
481
480
482
487
494
504
512
520
527
532
535
535
532
528
519
511
502
494
487
480
477
476
478
482
489
498
507
515
523
529
532
532
530
524
516
507
498
488
481
476
473
472
473
479
485
494
502
510
518
523
525
526
524
518
510
501
492
483
475
468
464
463
464
469
476
484
493
502
509
513
517
517
514
510
502
494
484
475
468
462
459
457
459
463
470
478
486
494
503
509
511
511
508
503
496
486
478
468
462
455
451
451
452
458
465
473
483
492
500
505
509
510
507
502
495
486
476
468
461
455
453
453
455
461
467
476
486
494
502
508
512
512
509
504
497
490
481
472
465
460
457
457
462
468
476
486
496
506
514
520
524
526
524
521
514
507
500
493
488
484
482
484
487
496
504
514
525
535
544
551
556
559
558
555
548
542
535
527
522
519
517
518
521
528
536
546
557
567
576
582
587
589
588
585
579
571
563
556
550
544
542
542
544
551
558
566
575
583
591
597
600
600
597
591
583
574
565
556
549
543
540
540
542
547
554
562
571
578
585
589
591
591
588
582
574
564
555
546
538
531
527
526
528
534
541
550
558
566
574
578
581
582
579
573
564
555
545
536
528
522
518
518
520
526
533
541
549
557
564
568
572
572
568
563
555
545
535
525
518
512
508
507
509
514
521
530
539
547
555
560
564
565
562
557
548
540
531
522
515
509
505
504
505
511
518
525
534
542
549
554
557
557
554
548
540
531
522
513
506
500
497
496
499
505
512
519
529
537
544
550
553
554
551
546
538
528
519
510
503
497
493
492
494
499
506
515
524
532
540
544
547
548
546
540
532
524
515
506
500
494
491
491
493
499
506
514
523
531
538
543
546
546
543
538
531
522
513
504
497
491
488
488
490
495
502
510
519
527
534
539
541
541
538
533
525
518
509
501
494
489
486
485
487
493
500
508
517
524
531
537
540
540
537
532
524
515
507
498
492
487
485
484
487
493
500
508
517
525
532
537
539
539
536
530
523
515
507
498
491
485
482
482
485
491
498
507
516
524
532
537
540
541
538
533
525
516
507
498
492
486
483
483
487
492
500
509
518
526
532
537
540
540
536
531
524
515
507
497
490
485
482
482
485
491
498
507
516
524
531
536
538
538
535
529
521
513
504
496
489
484
481
480
482
488
495
504
513
521
528
532
535
535
532
527
519
510
502
493
486
481
478
478
481
487
495
503
512
520
527
532
535
536
533
527
520
511
502
493
487
481
480
480
481
487
495
504
512
519
526
531
533
533
530
525
517
509
500
492
486
480
479
479
481
487
495
503
512
520
527
532
535
535
531
525
518
509
500
492
485
480
477
476
479
485
492
501
510
518
526
530
533
534
531
526
518
508
500
492
486
480
478
478
480
487
493
501
510
519
527
532
536
536
531
527
519
511
502
493
486
481
478
478
480
486
493
502
510
518
525
530
534
534
531
525
516
508
499
491
485
480
478
477
480
486
492
501
511
518
526
531
535
535
532
527
520
512
504
495
489
484
481
480
483
489
496
504
513
521
528
533
536
536
532
527
519
511
502
495
488
483
481
481
484
490
497
506
514
522
530
535
537
538
535
528
520
511
502
493
487
482
480
480
483
489
496
504
512
520
528
532
535
536
532
527
518
510
502
494
487
482
480
478
480
486
492
499
508
515
521
525
527
526
521
516
509
502
494
484
478
473
470
469
472
477
484
491
499
506
513
518
520
521
519
515
508
500
493
486
480
476
474
475
478
485
493
502
511
519
527
533
537
538
535
530
523
515
507
499
494
489
487
487
490
496
503
511
519
526
534
538
541
541
537
531
524
515
506
497
491
486
482
483
487
493
500
508
516
524
531
535
537
537
533
527
519
510
501
492
485
479
476
476
477
481
485
489
490
489
487
480
468
454
434
410
384
355
327
302
282
264
252
244
241
244
248
251
255
261
270
281
293
303
310
318
328
343
364
392
430
480
531
580
626
665
695
719
738
750
755
752
744
731
713
695
672
651
630
609
591
576
565
557
553
553
554
559
563
568
572
574
574
573
567
560
552
542
534
525
519
514
512
512
515
521
528
536
544
552
559
563
564
563
559
552
543
534
525
517
511
505
501
501
504
510
516
525
533
540
547
551
553
552
548
543
534
526
516
509
502
497
495
495
498
504
511
519
527
534
540
543
546
545
541
535
527
518
509
500
494
489
487
486
489
495
502
510
519
526
533
537
539
538
535
530
521
513
504
496
490
485
483
483
486
493
501
509
518
525
532
536
539
537
533
527
519
511
502
494
487
482
480
480
483
489
495
504
512
519
526
531
533
532
529
524
516
508
499
491
484
480
477
478
481
486
493
500
508
515
521
526
527
527
523
517
509
501
492
483
477
473
470
470
472
479
486
494
502
509
515
519
521
520
516
511
503
494
484
476
470
465
463
463
466
472
478
487
495
502
509
513
515
515
511
505
496
487
478
470
463
458
456
455
459
466
473
481
489
496
503
507
509
508
504
498
490
480
472
464
457
452
450
450
454
459
467
475
484
492
498
502
504
504
500
494
486
477
468
460
454
449
447
448
451
458
464
473
482
490
497
502
504
504
500
495
487
479
470
462
455
451
449
450
454
461
469
479
488
497
505
510
513
515
512
507
500
494
488
481
477
474
474
475
480
488
497
507
517
527
536
541
545
547
544
541
535
527
521
515
511
508
508
510
515
523
533
543
553
562
571
576
580
580
576
571
565
557
549
542
537
532
531
531
536
542
550
559
568
575
583
587
590
589
585
579
572
564
556
549
543
538
536
536
539
545
552
561
569
577
584
588
590
589
584
578
570
561
552
544
539
534
531
532
535
541
548
555
563
571
578
583
584
583
579
573
564
556
547
538
532
527
524
525
528
535
542
550
558
565
572
575
577
575
571
565
556
547
538
529
521
517
515
516
519
526
532
540
548
555
561
565
567
565
560
555
547
539
530
521
515
511
508
509
511
517
524
532
541
548
555
559
560
560
556
549
540
531
522
514
508
503
502
502
505
511
519
527
535
543
550
554
555
554
549
543
535
526
518
509
504
498
497
497
501
507
515
523
531
538
544
548
550
549
545
540
532
523
515
507
502
497
496
497
500
506
513
522
530
538
545
548
550
549
545
540
531
523
514
505
500
496
494
496
499
506
513
521
530
537
543
547
549
548
544
538
530
521
513
505
499
495
493
494
497
504
512
520
529
537
543
547
548
547
543
537
528
520
512
504
498
494
492
492
496
503
510
519
527
534
541
544
547
545
541
535
527
519
511
503
497
493
491
491
494
500
507
515
524
531
538
542
544
543
539
534
525
516
508
501
495
490
488
489
492
499
506
515
524
531
538
542
544
542
538
531
524
515
507
499
493
487
485
486
490
497
503
512
521
528
535
539
540
540
535
529
521
513
505
496
491
487
486
487
490
497
504
512
519
526
532
536
538
537
532
526
518
510
501
493
487
483
482
483
487
493
501
510
519
527
534
538
540
538
533
527
518
509
501
493
487
484
482
484
488
495
503
511
520
527
534
537
539
537
533
526
518
510
502
493
487
483
482
484
488
495
502
511
519
527
534
537
539
537
532
526
518
511
502
494
488
484
482
484
488
495
502
510
518
525
531
535
536
535
531
525
516
508
499
492
487
483
481
482
485
491
498
507
515
524
531
535
536
535
530
524
516
508
500
493
487
483
481
483
487
492
500
509
517
524
531
534
536
535
531
525
516
508
500
493
488
483
481
482
486
493
501
510
518
525
531
534
536
534
529
523
515
507
498
491
486
482
481
484
488
496
504
512
521
528
535
539
541
539
534
528
519
511
503
495
490
485
484
486
489
496
503
511
519
527
533
537
539
537
532
526
517
508
499
491
486
481
479
481
484
491
499
508
516
523
530
533
534
532
528
522
513
505
496
489
483
479
477
478
482
489
497
506
515
522
528
532
533
531
526
520
511
502
494
486
480
476
474
476
480
487
494
503
511
519
525
529
531
529
526
519
511
502
494
486
480
476
474
475
479
486
493
501
510
517
523
526
527
526
521
516
507
499
490
482
477
472
472
473
477
485
493
502
510
518
524
528
529
528
523
516
508
500
492
484
479
475
473
476
480
487
496
505
514
521
527
531
533
531
527
520
511
502
492
483
478
473
471
473
476
482
489
497
506
513
519
523
524
522
518
511
503
494
485
476
470
466
463
464
468
475
483
493
503
511
519
523
526
526
522
516
509
501
493
485
480
477
477
479
484
492
501
511
520
528
536
540
541
540
536
530
522
514
506
498
493
489
488
489
494
501
508
516
525
533
540
543
545
544
539
533
524
515
507
498
492
488
486
487
491
497
504
513
521
527
533
537
538
536
529
523
513
504
495
486
478
471
465
461
458
456
452
448
441
432
421
406
389
369
347
326
306
288
272
257
248
242
236
231
233
240
253
270
289
306
324
342
362
385
411
441
478
523
564
602
636
660
678
693
704
711
715
714
711
705
698
688
676
662
646
628
609
591
575
560
550
541
535
533
535
539
544
551
558
563
568
571
571
568
563
556
546
538
529
521
515
510
509
511
514
521
528
536
545
551
557
560
560
558
551
544
535
526
517
508
503
498
496
498
502
509
516
525
534
541
547
551
552
551
545
540
530
521
512
504
497
493
492
493
497
502
510
518
526
531
538
541
542
540
535
528
519
510
501
493
487
483
481
482
487
493
500
509
516
523
528
531
531
530
524
518
509
500
492
484
479
475
474
476
480
487
494
504
512
519
527
530
532
530
525
518
509
501
493
484
479
475
474
476
480
487
494
503
512
518
524
527
528
526
521
514
505
496
487
480
474
470
469
470
475
482
490
499
507
514
521
524
525
523
518
512
504
495
486
478
473
469
467
468
472
479
487
496
504
511
517
521
522
519
514
508
499
490
481
473
468
464
463
465
468
476
483
492
501
508
513
516
517
515
510
503
494
484
475
467
461
457
456
458
462
469
477
485
493
501
507
510
510
508
503
496
486
478
470
462
456
452
451
452
457
464
472
481
490
496
503
506
506
505
499
494
486
478
469
461
455
452
451
454
458
466
474
483
492
499
506
510
511
509
504
498
490
482
474
467
463
460
460
462
467
476
484
493
503
511
517
521
524
522
517
513
506
499
492
486
482
480
481
485
491
500
509
519
528
536
543
548
550
550
547
543
536
529
523
518
514
512
512
516
522
532
541
551
560
569
576
580
583
582
577
572
565
558
551
544
540
536
536
539
544
551
560
569
578
584
591
594
595
594
588
581
573
563
555
547
542
537
536
538
542
550
558
566
574
580
586
588
588
585
579
572
563
554
546
538
533
529
527
530
534
540
547
556
564
572
577
581
582
579
574
567
558
550
542
534
528
525
524
526
529
536
543
551
558
564
570
572
572
570
564
557
548
539
530
523
517
513
512
514
518
525
533
542
550
557
561
564
565
562
556
548
539
530
521
513
507
503
502
504
507
514
520
528
536
543
549
551
552
550
544
537
527
519
510
503
497
493
491
493
498
505
513
522
530
537
543
546
547
544
539
532
524
515
507
498
493
489
487
488
493
501
509
519
527
534
540
543
544
541
536
530
521
513
506
498
493
489
488
491
495
501
508
517
525
533
539
542
543
540
536
529
521
512
504
497
492
487
487
489
494
501
509
517
525
532
539
541
542
540
534
527
519
510
502
495
491
488
488
490
495
503
511
519
528
536
541
544
545
543
538
530
521
513
504
497
492
489
489
491
496
504
511
519
528
535
541
544
545
543
538
530
521
511
503
496
491
487
486
489
493
502
510
518
526
533
539
541
542
539
533
527
518
510
502
495
491
487
487
490
495
502
510
519
526
532
539
541
542
539
534
527
518
509
499
492
487
483
483
486
491
499
506
515
523
529
535
538
539
537
531
523
515
507
499
492
487
485
484
487
493
501
510
518
527
533
539
541
541
539
533
526
517
508
500
493
487
483
483
485
490
497
505
513
521
528
535
536
537
534
528
521
513
504
496
489
484
481
480
483
488
495
504
512
520
527
532
535
536
533
527
520
512
504
495
487
483
480
479
482
487
495
503
512
519
526
531
535
536
534
528
521
513
505
497
490
484
482
481
484
489
497
504
513
521
528
533
536
536
534
527
521
512
504
496
489
483
480
479
482
488
495
503
511
519
527
533
536
537
534
527
520
511
502
495
487
482
479
478
481
486
495
502
510
519
527
533
536
536
534
528
521
513
505
497
490
486
482
482
484
489
498
507
515
524
531
537
539
540
537
532
526
518
510
502
495
489
486
485
488
493
502
510
519
528
535
540
543
543
541
536
529
521
512
504
497
492
490
489
492
496
504
512
521
529
536
541
543
543
541
535
528
520
511
504
496
492
488
488
491
496
504
511
519
527
535
540
542
543
540
534
527
519
510
502
494
488
486
485
487
492
501
510
517
525
532
537
539
540
537
532
526
517
509
501
494
489
486
486
488
492
499
507
515
523
530
536
538
538
535
528
521
512
504
496
489
485
481
481
484
489
497
505
514
521
528
533
536
536
533
527
520
511
504
496
489
484
481
480
484
489
496
504
513
520
527
532
534
533
529
523
515
507
497
488
480
475
473
472
476
480
487
494
502
510
515
519
521
521
519
515
508
501
494
487
481
476
474
475
479
485
495
503
512
521
528
534
537
539
537
534
528
520
512
505
498
494
492
491
494
500
508
516
524
533
539
546
548
548
546
541
534
525
516
508
500
496
493
493
495
500
507
515
523
531
536
542
544
543
540
534
527
519
511
502
494
490
487
486
488
492
499
506
513
519
525
529
528
525
516
504
487
468
447
424
402
380
357
337
321
306
297
291
288
286
286
286
286
283
275
266
258
253
253
255
258
264
276
296
327
367
417
473
542
604
659
705
736
755
764
765
758
745
728
708
686
667
650
636
625
617
613
609
607
606
604
601
598
591
583
572
561
550
539
528
520
514
511
510
512
517
524
532
540
548
555
560
561
560
557
550
543
534
525
516
509
504
500
499
503
507
513
520
528
537
543
549
551
551
547
540
533
523
515
507
500
495
492
491
494
499
506
512
521
528
535
539
540
541
537
531
524
516
506
498
490
484
483
483
486
491
498
506
514
522
528
534
536
536
532
527
519
511
502
494
487
483
480
480
483
488
496
504
512
520
526
531
533
533
530
524
517
508
500
492
484
480
477
477
480
484
491
499
507
514
520
526
527
527
524
517
511
502
494
485
479
474
471
470
473
478
485
492
500
508
514
520
522
522
519
513
507
498
489
481
475
470
467
466
470
476
483
491
499
507
513
518
520
519
517
511
503
493
485
476
469
463
461
461
464
469
476
485
493
500
507
511
513
513
510
504
496
487
478
470
463
457
454
453
456
461
469
477
486
494
501
506
509
508
504
497
490
481
472
464
458
453
451
451
455
460
468
476
485
493
498
504
505
505
502
496
489
480
471
464
457
454
451
451
454
460
468
476
485
493
500
505
508
508
505
499
493
484
476
468
461
457
455
455
459
465
473
482
491
499
506
512
514
515
512
508
502
494
486
480
474
472
471
472
477
483
492
502
511
520
528
535
538
540
539
535
529
522
516
510
504
501
500
502
507
514
523
533
544
553
560
568
572
574
572
566
560
553
545
539
532
529
528
529
533
539
548
557
567
576
583
588
591
591
589
583
578
570
562
554
547
543
541
541
545
550
558
566
574
582
588
593
595
594
591
584
576
568
558
550
542
538
535
534
536
541
548
556
563
571
576
580
583
582
577
571
564
556
547
539
532
527
524
524
527
533
540
548
556
564
569
574
574
574
570
563
556
547
538
530
522
517
514
513
516
521
528
536
544
552
558
562
563
563
559
553
546
537
528
519
512
507
504
504
507
512
519
527
536
543
550
555
557
556
553
546
539
529
520
512
505
501
499
500
503
509
517
524
532
539
546
551
553
553
549
543
534
525
515
508
502
497
495
495
498
504
511
519
527
536
542
547
550
550
546
540
532
523
514
506
499
495
493
493
497
503
511
519
527
536
543
549
551
551
547
541
532
523
515
508
501
497
495
496
499
505
512
519
527
535
541
545
547
546
543
536
529
520
512
504
498
494
491
492
495
501
509
517
526
533
539
544
545
545
541
535
527
519
511
503
496
492
490
490
494
499
507
515
524
531
538
543
546
546
543
536
529
520
512
504
497
494
492
492
495
501
509
516
524
532
538
543
545
545
542
536
529
520
512
504
496
492
488
489
493
498
507
515
523
531
538
543
545
545
542
535
527
518
510
501
494
489
487
488
492
497
505
513
522
531
538
543
545
545
542
536
527
519
510
503
495
490
488
488
492
497
504
512
520
528
534
539
540
540
537
530
523
514
506
499
492
487
486
486
489
496
504
512
521
529
535
540
542
542
538
531
524
515
507
499
492
487
486
487
490
496
504
512
521
529
535
540
542
541
536
530
523
514
505
497
491
485
483
484
487
493
500
509
517
525
530
535
536
536
531
526
518
510
502
494
487
483
481
481
484
490
498
507
515
523
529
535
537
536
534
527
519
511
503
495
488
484
481
482
486
491
499
508
516
524
530
536
537
537
534
527
520
512
503
495
488
484
482
483
486
492
499
508
517
526
532
538
540
539
535
527
520
511
503
495
488
484
482
482
486
492
500
508
517
525
532
537
538
539
535
529
521
512
504
496
489
485
482
483
487
493
500
508
517
524
531
536
538
538
534
527
519
511
502
494
488
484
482
482
486
492
500
509
518
526
533
537
539
538
534
527
520
512
504
495
488
484
482
483
486
492
499
507
515
523
529
535
536
535
532
525
518
509
501
494
487
484
482
482
486
491
498
507
515
522
528
533
535
534
531
525
518
510
501
493
487
482
480
481
485
491
499
507
516
523
529
534
536
535
531
524
516
507
498
490
484
480
478
478
482
488
496
504
513
522
528
533
535
534
530
523
515
506
496
488
481
476
472
472
475
480
487
494
502
509
515
520
521
521
518
512
505
496
487
479
472
467
464
463
467
472
480
489
498
507
514
520
522
523
520
515
508
500
492
484
478
475
474
475
479
486
494
504
514
523
529
535
536
536
534
527
521
513
505
498
491
487
485
486
490
495
504
512
520
528
534
539
541
540
536
529
521
512
504
497
489
485
483
484
488
494
501
509
517
525
530
535
536
535
531
523
515
506
497
488
481
476
471
468
468
467
467
466
463
457
449
437
420
400
377
352
326
304
284
268
253
242
236
232
230
229
235
243
258
276
292
308
323
338
356
379
404
437
479
526
569
610
644
671
692
708
720
726
728
726
719
711
699
684
668
649
628
608
589
573
558
547
539
535
535
537
542
548
554
560
564
568
568
566
562
555
546
537
528
520
514
510
507
507
509
515
523
531
539
546
551
556
557
555
551
544
537
527
519
511
504
499
497
497
502
508
516
524
533
540
546
550
552
551
546
540
531
522
513
507
500
496
493
494
497
503
510
518
526
532
538
542
544
543
540
532
524
515
507
498
492
488
486
487
490
496
504
512
521
528
534
538
540
540
535
529
521
512
504
496
489
485
484
484
487
494
501
509
518
526
531
535
537
536
533
527
519
510
502
494
487
483
480
481
485
491
498
507
514
522
527
531
532
531
526
519
511
503
494
486
479
475
472
473
477
483
491
500
509
516
522
526
528
526
523
515
508
499
490
483
476
473
471
472
476
481
490
498
506
514
519
523
525
523
519
512
504
495
487
479
472
467
465
466
469
475
483
490
498
505
512
515
516
515
510
504
496
486
478
470
463
459
457
457
462
468
476
483
492
499
505
508
510
508
503
496
488
480
472
463
456
453
451
452
456
462
470
479
487
495
501
505
507
506
503
496
489
480
472
464
457
453
452
453
457
463
472
480
488
496
503
507
510
509
505
499
492
483
475
468
463
460
458
460
466
473
482
491
500
509
515
520
523
523
521
515
510
503
496
490
485
483
483
486
491
499
508
518
528
537
545
550
553
554
551
546
541
534
527
521
516
514
513
515
521
528
538
548
558
568
575
580
582
582
579
573
566
558
550
543
537
534
533
535
540
545
554
562
570
578
585
589
590
589
585
579
571
562
554
546
539
536
534
535
539
545
553
561
569
576
583
588
589
588
583
575
567
557
548
540
533
529
527
527
531
538
546
554
562
570
576
580
582
580
575
567
559
549
540
532
525
521
519
519
522
528
536
544
553
560
565
570
571
569
564
557
549
540
531
523
516
512
511
512
515
522
529
537
545
553
558
561
563
561
556
549
541
532
523
515
509
505
503
504
507
513
521
530
538
546
551
556
557
556
551
544
536
527
518
511
505
502
500
501
504
511
519
527
535
543
548
552
553
552
548
542
534
525
516
509
503
499
497
498
503
509
517
526
534
542
547
551
553
551
547
541
533
524
515
507
500
496
495
495
499
505
513
521
530
537
544
547
549
547
543
536
529
520
511
504
498
493
490
492
496
503
511
519
527
535
540
544
545
544
540
533
526
517
509
502
496
492
491
492
496
502
510
518
526
533
539
543
544
543
538
531
524
515
507
499
494
490
489
490
494
501
509
516
525
532
538
542
544
542
538
530
523
513
505
497
491
487
486
487
491
496
505
512
520
527
533
537
538
537
533
526
518
510
502
495
488
485
483
484
488
495
502
511
519
526
531
535
537
535
530
524
516
507
499
491
485
481
480
481
486
492
500
509
517
524
529
533
535
532
527
520
513
505
496
489
483
479
478
480
485
491
499
508
515
523
528
532
533
531
527
519
511
502
494
487
480
477
476
477
482
488
497
505
514
521
526
531
531
530
526
519
512
503
495
488
482
478
477
479
482
488
497
506
513
521
527
531
532
530
526
518
511
502
494
487
481
478
476
477
481
487
496
504
513
520
526
529
531
529
526
519
511
503
495
487
482
478
477
478
482
489
497
506
515
522
528
531
532
531
527
520
512
503
495
487
481
477
477
479
484
489
497
505
513
521
526
530
531
529
525
518
511
502
495
487
481
478
476
477
482
488
496
505
513
521
527
532
534
532
527
520
513
505
497
489
484
481
480
481
486
493
502
510
519
526
532
536
537
535
531
524
515
508
499
492
485
481
479
481
486
492
501
509
518
525
531
536
537
536
530
523
515
506
497
490
483
481
480
482
487
493
501
510
519
527
533
537
539
537
532
525
518
509
500
494
487
484
483
485
489
496
504
513
521
528
535
539
540
539
534
527
518
510
502
495
489
485
484
485
490
495
504
512
520
527
534
538
539
537
532
526
519
510
501
494
487
483
483
484
489
496
504
512
520
528
534
537
539
536
532
525
517
508
501
494
488
485
484
486
490
497
506
513
522
529
535
539
540
539
534
526
518
509
500
492
487
483
483
485
489
497
505
514
521
529
535
538
540
539
534
527
518
509
501
493
487
483
483
484
489
496
504
513
521
529
535
539
540
537
532
525
518
509
500
493
487
484
482
484
489
495
503
511
520
527
534
537
539
537
532
526
518
509
501
494
487
484
483
484
489
496
503
511
519
525
530
533
534
531
527
519
511
501
491
483
477
473
472
474
480
486
495
504
511
518
522
526
527
524
519
511
503
494
486
480
475
472
473
476
482
490
499
509
518
527
532
536
537
535
531
524
517
510
503
496
491
488
488
491
497
504
512
521
530
537
543
547
548
547
542
535
526
517
509
502
496
492
491
492
496
504
512
520
528
535
540
544
545
542
537
531
522
513
504
497
492
488
487
488
493
499
507
515
522
528
533
536
535
532
525
513
500
484
467
451
432
415
399
384
371
358
348
337
330
324
319
315
308
303
295
285
272
260
252
250
253
261
271
285
304
328
360
398
440
488
542
594
640
676
702
716
722
721
715
704
689
675
660
648
640
633
630
626
622
619
614
609
603
595
585
573
561
549
538
528
520
515
513
514
517
524
531
539
546
553
558
560
560
558
553
545
536
527
519
512
506
503
501
503
508
515
523
531
539
547
552
556
556
554
548
540
533
523
514
507
501
498
497
499
503
509
516
524
532
539
543
547
547
545
541
533
525
515
507
499
494
490
489
489
494
500
507
515
523
529
535
538
538
535
530
522
514
505
496
489
483
480
479
482
487
494
502
511
519
527
532
536
537
534
529
523
515
507
499
492
485
483
481
483
487
494
502
510
518
525
529
531
532
530
524
517
509
499
491
483
479
475
474
476
480
487
495
503
512
519
524
527
529
527
522
514
507
497
488
481
475
472
471
473
477
484
492
501
509
515
521
524
524
522
517
510
502
493
485
478
472
468
467
469
473
480
487
497
505
512
516
519
520
517
512
504
496
487
479
471
465
462
461
463
469
476
485
494
502
510
514
517
518
514
509
501
492
483
474
467
462
459
457
460
465
472
480
488
496
503
509
512
512
511
506
499
491
481
472
465
459
455
454
457
463
470
478
487
496
504
510
513
514
512
507
499
491
483
475
467
462
460
459
461
466
473
481
490
499
506
512
516
517
515
510
504
497
489
481
475
470
467
467
470
476
484
494
503
512
521
527
532
533
531
528
522
515
508
502
496
492
491
493
497
505
513
523
534
543
552
559
564
567
565
562
556
549
542
535
529
524
524
524
527
533
541
550
559
568
576
582
586
587
585
581
574
567
559
551
545
540
537
537
540
546
553
562
570
578
584
590
592
592
590
584
577
568
559
551
544
539
536
536
538
543
549
557
565
573
579
583
585
585
583
577
569
561
552
543
536
529
526
524
526
531
538
546
554
562
568
572
575
574
571
565
558
548
539
529
522
516
512
511
513
519
525
533
541
549
555
560
563
562
559
552
545
536
526
517
510
504
500
499
501
506
512
519
527
535
541
546
549
549
547
541
533
525
516
508
502
496
493
492
495
500
507
515
523
531
539
543
546
546
544
539
531
524
514
505
499
492
489
488
491
496
503
512
520
528
535
539
542
542
540
534
526
519
510
502
496
491
488
487
489
494
500
509
516
524
531
536
540
541
537
531
525
516
508
502
495
491
489
490
494
499
507
515
524
533
540
545
547
548
544
538
531
522
513
505
498
493
490
489
491
496
503
511
519
527
534
539
542
542
539
534
527
519
510
502
494
489
487
485
487
492
499
508
517
525
532
537
540
540
537
531
524
515
507
499
492
486
483
483
486
491
498
507
515
523
530
536
539
539
536
531
524
516
507
499
493
487
486
485
487
493
500
510
519
527
535
541
544
545
543
538
531
523
514
506
499
492
489
489
492
496
504
512
521
529
536
541
543
544
541
536
529
521
512
504
497
492
489
490
493
497
505
512
520
528
535
540
543
543
540
535
527
518
509
500
492
487
485
484
487
493
500
508
517
525
531
536
539
539
536
529
522
513
505
497
490
485
482
483
486
491
499
508
517
526
534
539
542
543
540
535
527
519
510
502
495
489
487
487
492
498
505
513
523
531
538
543
546
546
543
537
529
522
513
505
498
493
490
490
493
497
505
513
521
530
537
543
545
545
542
536
528
520
510
502
495
489
487
486
488
494
501
509
517
526
533
538
541
541
537
532
525
516
508
499
493
487
484
484
487
493
501
509
517
525
532
539
542
542
540
535
528
521
513
506
500
495
493
493
496
501
508
516
524
532
540
544
547
547
543
537
529
521
511
503
496
491
488
488
491
497
504
512
519
527
534
538
540
540
536
531
523
514
506
499
492
487
485
484
487
493
499
508
517
524
531
536
539
538
536
531
522
513
504
496
489
483
480
480
482
487
495
503
511
519
526
531
534
534
531
526
519
510
502
494
487
483
480
480
483
489
496
505
512
520
526
531
533
534
530
524
517
508
500
492
486
481
480
480
483
488
496
504
512
519
526
531
533
534
530
525
518
510
502
494
487
481
479
478
481
486
492
501
509
516
523
526
528
528
525
520
513
505
497
490
484
480
478
478
482
488
495
503
511
519
526
531
534
533
529
524
516
508
499
491
484
480
477
477
480
486
493
501
510
518
525
529
532
532
528
522
514
506
497
489
482
477
473
473
477
482
488
496
503
510
515
519
521
520
517
511
504
496
487
480
472
467
463
462
464
468
475
483
492
500
508
514
519
520
519
515
508
501
493
486
480
476
474
475
479
486
494
503
512
521
529
534
537
537
535
529
522
515
507
499
492
487
485
485
488
494
500
509
517
525
531
536
539
540
536
530
522
514
506
498
491
486
483
483
486
491
498
507
515
522
528
533
535
535
531
525
517
508
498
489
481
476
473
472
474
476
479
481
480
478
474
465
453
437
417
392
366
337
310
285
263
246
234
228
227
231
236
241
249
260
276
294
311
327
343
359
377
399
429
465
509
559
604
643
676
702
722
739
751
759
761
757
749
735
718
698
676
653
632
611
593
578
567
559
554
552
552
554
557
560
562
564
564
561
556
550
542
532
524
516
509
504
501
499
502
507
513
520
528
536
542
545
547
547
543
538
530
521
512
505
498
494
492
492
496
501
508
515
522
529
536
540
543
543
540
534
526
516
508
499
493
488
487
488
492
497
504
512
520
527
533
537
539
538
535
529
520
512
502
493
487
481
479
478
480
486
492
502
510
517
525
529
531
531
527
521
513
504
496
487
481
477
475
476
480
485
493
502
509
517
524
527
530
529
526
520
513
505
497
489
483
478
476
476
480
486
494
502
511
518
524
528
529
528
523
517
509
501
493
486
480
475
472
473
478
484
491
499
507
513
520
525
527
526
523
517
509
500
492
484
478
474
471
472
476
481
488
497
505
512
518
523
524
524
520
513
506
497
488
481
475
470
468
468
471
476
483
490
497
505
510
514
515
515
512
505
497
488
480
472
465
461
460
460
463
468
475
483
491
498
505
509
511
511
507
501
494
486
478
471
464
460
457
457
460
466
473
483
491
499
507
512
514
514
512
506
498
491
483
475
469
464
463
463
466
472
480
488
496
504
509
513
516
516
513
508
501
493
486
479
473
469
466
467
470
476
484
492
502
510
517
523
527
527
525
520
514
507
500
493
488
487
486
487
492
499
507
517
527
536
543
549
552
552
550
547
541
535
528
523
518
515
516
518
523
530
539
548
558
566
574
579
582
582
579
573
566
559
551
544
538
534
532
534
537
542
550
558
567
575
580
585
587
587
583
577
570
563
556
548
542
538
536
537
540
545
552
561
568
575
580
584
586
584
580
574
567
558
550
543
537
533
532
532
536
541
548
556
564
571
576
580
580
579
575
568
559
550
542
534
528
525
523
523
526
531
538
545
553
560
565
568
570
568
564
558
550
542
534
525
519
515
513
513
516
522
529
538
545
551
557
560
562
560
556
549
541
533
524
516
509
505
503
504
508
513
520
529
537
544
551
555
556
555
550
543
535
527
518
511
505
502
500
501
504
510
518
526
535
542
548
551
553
551
547
540
532
524
515
507
500
496
494
494
498
504
512
520
528
536
543
546
548
547
544
537
530
521
513
505
499
495
493
494
497
504
512
521
529
536
542
547
549
548
543
537
529
521
513
506
499
495
493
494
498
504
511
519
527
535
540
544
545
543
540
533
525
516
508
501
495
491
490
492
496
503
510
518
526
533
539
543
544
543
540
534
526
518
509
502
497
493
491
490
493
499
506
514
522
529
536
540
542
541
537
532
524
518
510
503
497
492
491
491
494
500
507
514
523
530
536
540
542
542
538
532
524
517
509
502
497
493
492
492
496
501
509
517
525
532
538
541
543
542
537
531
523
515
506
497
492
487
487
487
492
497
504
513
521
528
535
539
541
540
536
530
523
515
507
499
493
488
487
487
491
497
504
512
520
527
533
537
538
537
533
526
519
511
503
496
490
487
485
486
490
495
503
511
519
527
533
537
539
537
535
528
520
512
504
497
492
489
487
487
492
498
505
513
520
527
533
537
539
537
533
527
519
511
502
495
488
484
481
482
485
491
498
506
514
521
527
532
535
534
530
524
516
508
499
493
487
483
481
482
486
492
499
507
514
521
526
529
530
529
526
519
512
505
497
490
484
480
480
480
484
489
496
505
513
521
527
531
532
531
527
521
515
507
498
491
485
481
479
480
483
489
496
505
512
519
524
528
530
529
525
519
511
503
495
487
481
478
476
478
482
488
496
504
511
518
523
527
528
527
523
518
511
503
496
488
482
478
476
477
481
488
496
504
512
519
526
529
531
530
526
520
512
504
496
488
483
479
477
479
483
489
497
508
516
523
529
534
536
535
530
524
516
508
499
492
487
483
482
483
487
494
501
510
518
525
531
534
536
535
531
526
518
511
503
496
492
487
486
487
491
497
503
511
518
525
530
533
535
534
530
524
517
509
501
495
489
485
484
485
489
496
502
510
516
523
528
531
531
529
524
518
510
501
492
484
479
475
474
476
481
487
493
501
509
517
523
527
528
527
523
517
511
503
495
489
483
480
479
480
484
491
498
507
515
523
529
534
537
536
531
525
519
512
505
499
494
492
491
493
497
504
512
521
529
536
542
545
547
545
541
534
526
518
510
503
496
493
491
491
495
502
508
516
524
531
536
539
540
537
533
526
519
511
503
496
489
485
482
482
486
491
497
505
511
516
518
515
510
500
486
467
444
420
394
368
343
319
297
280
268
260
258
257
259
264
267
267
266
267
268
273
277
282
289
301
317
340
370
408
453
511
568
620
665
701
727
744
755
757
750
738
721
701
679
659
639
622
609
599
592
588
585
585
584
584
583
580
576
569
562
553
544
534
524
516
509
505
503
503
506
512
519
527
534
540
547
550
551
548
543
536
527
519
511
504
497
494
493
495
499
504
511
518
526
532
536
539
540
537
533
526
518
509
501
494
487
484
483
484
489
495
502
511
519
526
531
534
535
532
528
521
514
506
498
492
486
482
480
481
484
489
496
505
513
520
525
529
531
529
526
520
513
505
498
491
487
483
482
484
488
495
504
512
519
527
532
536
536
535
530
524
515
507
499
492
487
483
483
484
488
495
503
512
520
528
534
538
539
537
532
525
517
508
500
493
487
484
483
483
487
494
501
508
516
522
526
529
529
526
520
513
505
497
488
481
475
471
470
471
475
481
488
496
504
511
515
519
520
519
515
508
502
493
484
476
470
467
465
467
471
477
484
492
500
507
512
515
516
514
510
503
495
487
478
471
465
462
460
462
466
472
480
488
496
504
508
512
513
511
507
500
492
484
475
468
462
458
456
457
460
467
473
481
488
495
499
503
505
503
498
492
485
478
470
463
459
457
456
459
463
470
477
485
494
501
507
511
512
511
507
500
494
485
477
470
465
462
461
463
466
472
480
489
498
506
512
516
519
518
514
509
503
497
491
484
480
478
478
482
488
496
505
514
524
533
540
545
547
547
545
541
536
529
523
517
513
511
510
512
517
524
531
540
550
558
564
570
573
573
571
566
560
553
545
540
536
534
534
536
541
548
556
566
574
581
588
590
591
590
586
579
573
565
557
550
545
543
541
543
547
553
561
570
578
586
592
595
596
594
589
582
574
566
558
551
544
541
539
541
545
551
559
567
575
582
587
590
592
590
584
577
569
561
552
544
539
536
535
536
540
546
554
562
570
577
583
585
586
583
578
571
562
553
544
536
530
527
525
526
529
535
542
549
556
562
567
569
571
567
562
556
547
538
529
523
517
513
512
512
515
521
528
536
543
551
557
561
563
561
556
549
540
532
524
516
511
508
506
508
512
517
524
532
540
547
552
556
556
554
549
542
534
525
516
509
503
500
498
499
503
509
516
525
533
540
545
548
549
546
541
534
525
517
508
500
494
491
490
492
496
502
511
518
526
533
538
543
543
541
536
528
520
512
504
497
491
488
487
488
492
498
507
513
521
528
534
537
539
536
532
526
518
509
502
495
489
486
486
487
492
497
505
514
521
527
533
536
536
535
530
523
516
508
501
494
487
483
482
483
488
495
502
510
517
524
529
532
533
531
526
518
511
503
496
489
484
481
480
483
487
494
501
508
515
523
527
530
531
528
524
517
510
502
495
488
484
481
480
482
486
493
500
508
515
522
527
529
530
528
524
519
511
503
495
488
482
479
478
479
483
489
497
506
514
520
526
529
531
528
524
518
510
502
494
487
481
478
476
478
481
487
495
503
511
518
523
527
528
526
521
515
507
498
491
484
480
477
476
478
483
489
497
506
513
520
525
528
529
528
523
516
509
501
493
486
480
476
475
477
483
488
496
504
512
519
524
527
528
526
522
515
508
500
492
486
481
478
477
478
483
489
497
505
513
520
525
527
528
526
521
515
508
499
492
484
480
476
476
479
483
491
499
507
515
521
526
529
529
527
521
514
508
500
492
486
481
479
479
480
484
491
497
505
513
520
526
529
531
528
524
517
511
503
496
489
484
481
480
482
487
493
501
510
518
524
529
532
532
531
527
519
512
504
496
489
484
481
480
482
486
493
501
509
517
524
528
531
533
531
527
520
512
504
497
490
485
481
480
482
487
494
501
510
518
524
529
533
534
531
526
519
511
504
495
489
483
480
480
482
486
493
500
508
515
522
527
530
531
529
525
519
512
504
497
490
485
482
481
483
487
493
499
506
512
518
522
524
524
521
516
509
501
493
485
478
473
470
469
471
475
481
488
496
503
509
513
517
519
517
513
508
501
495
488
483
479
477
477
480
485
492
500
508
516
524
529
534
536
535
530
524
517
509
502
496
491
489
489
492
497
504
511
519
526
532
537
540
540
539
534
527
519
512
504
497
491
488
487
488
493
499
507
515
523
529
534
536
536
534
528
521
513
505
496
489
483
479
477
478
481
486
489
493
494
492
488
479
467
449
428
403
375
348
320
295
274
257
246
240
237
239
244
248
251
255
261
271
282
290
296
300
307
319
339
367
402
450
510
565
620
668
704
733
753
766
772
769
761
745
727
706
683
662
641
623
605
591
581
574
571
569
571
574
576
579
580
579
578
574
568
560
551
542
534
527
521
519
518
520
524
531
538
545
553
559
563
566
566
563
558
550
542
533
526
519
513
510
509
511
515
520
528
536
544
550
555
558
558
556
550
543
536
527
519
512
508
504
504
506
510
515
523
530
537
543
548
551
551
549
543
536
528
519
511
504
498
495
493
495
499
505
512
520
527
533
538
541
542
540
535
528
521
513
506
500
495
492
491
494
498
504
512
519
527
534
539
540
541
538
533
526
518
510
503
496
491
487
487
488
493
499
505
513
520
526
531
534
535
532
526
519
511
503
495
488
483
479
478
481
486
492
498
507
515
522
526
528
529
527
521
514
507
498
491
483
478
475
474
475
479
486
493
501
508
514
519
521
521
519
513
506
498
489
482
476
471
468
467
469
473
479
486
494
502
508
512
514
514
512
507
500
493
484
476
469
464
462
461
463
467
473
481
489
496
502
505
508
508
505
500
493
486
477
469
462
457
454
454
455
460
466
475
483
490
497
502
504
504
501
496
489
480
473
465
458
453
450
451
454
459
467
475
483
491
499
504
507
508
505
499
492
484
476
469
462
458
456
456
460
466
473
482
491
499
508
514
519
520
519
515
509
503
496
490
485
483
482
483
487
495
503
513
522
531
539
546
551
553
552
550
544
538
531
524
519
515
515
516
519
526
533
543
553
562
570
576
580
582
580
576
571
563
556
549
543
539
537
537
540
545
552
561
570
578
584
589
592
593
590
585
578
570
561
553
547
542
540
539
542
547
552
560
569
576
582
587
590
590
588
582
575
566
558
549
543
537
535
534
536
541
548
555
563
570
576
581
583
583
580
575
568
559
550
542
536
530
527
526
528
533
539
546
554
562
568
572
574
574
571
566
558
550
541
533
525
520
516
516
518
523
529
537
545
552
558
562
564
564
560
555
547
538
529
520
514
509
506
506
508
513
520
528
535
543
550
554
557
557
554
548
541
533
524
515
508
504
501
500
503
508
514
522
530
537
543
548
551
551
547
542
533
525
517
509
503
497
495
494
497
502
508
515
524
531
537
542
544
545
541
536
530
522
514
507
500
496
493
493
496
501
508
516
524
531
538
542
545
545
542
537
530
523
514
506
499
494
492
491
494
499
506
513
521
529
535
539
542
542
539
533
526
518
511
502
496
489
487
487
490
495
502
509
516
524
531
536
539
540
537
531
524
516
508
501
494
489
487
486
489
494
501
509
516
524
531
536
539
539
536
530
523
515
507
499
493
489
487
487
490
495
501
509
517
524
531
536
538
539
536
530
523
515
507
499
493
488
486
485
487
493
500
508
516
523
530
535
537
537
534
528
522
513
505
498
492
487
484
484
486
491
498
506
514
521
528
533
536
536
534
529
522
514
507
499
492
486
484
483
487
491
497
506
514
522
529
534
537
537
535
531
524
516
508
500
494
490
487
487
490
495
502
510
518
525
531
536
539
538
535
529
522
513
505
497
491
486
483
483
486
491
498
505
513
520
527
531
534
534
531
525
518
511
502
494
487
482
479
479
481
486
492
500
508
515
523
527
529
528
525
519
512
504
497
488
481
476
473
472
475
480
487
495
503
511
518
523
525
525
522
518
510
502
493
485
479
475
473
473
477
482
489
498
507
515
522
526
529
529
527
521
514
506
498
491
484
479
476
477
480
485
492
500
508
515
523
527
531
531
527
522
515
507
499
491
483
479
476
476
480
485
492
501
509
516
521
526
528
529
526
521
514
507
499
492
485
480
477
477
479
484
492
500
509
516
523
527
530
531
529
524
516
508
500
493
486
482
480
480
483
488
496
504
512
520
527
532
535
536
532
527
520
512
503
495
488
483
481
482
485
489
496
504
513
520
527
532
535
535
532
527
520
513
504
497
490
485
482
483
485
491
497
505
514
521
528
534
536
537
534
527
520
511
504
496
490
485
483
483
487
492
499
507
515
523
529
534
536
537
534
529
522
514
506
498
492
487
486
486
489
494
502
510
517
524
530
535
537
537
534
528
521
513
505
498
491
487
484
483
486
492
499
507
515
523
528
533
536
536
533
528
521
514
506
499
492
487
486
486
489
494
501
510
518
526
532
537
538
538
534
528
520
511
502
495
488
483
480
478
480
485
492
499
507
514
519
524
527
527
524
519
511
502
494
484
477
471
469
469
473
480
487
496
504
513
521
527
531
532
531
526
519
511
502
495
488
484
483
484
487
494
502
512
520
529
536
541
544
545
542
537
530
523
515
508
502
497
495
495
498
504
511
519
527
535
541
545
547
547
543
538
530
522
513
505
499
493
490
489
492
497
504
513
521
528
534
537
540
539
535
528
519
511
502
494
486
480
475
472
470
467
467
464
460
452
443
431
415
397
375
353
330
309
291
275
261
251
246
242
239
239
244
254
267
282
295
305
316
329
345
365
391
423
466
516
563
607
644
672
692
708
718
724
725
721
715
706
695
681
665
647
627
610
592
577
564
554
546
542
541
543
547
551
557
563
568
571
572
571
566
560
551
542
534
526
519
514
512
511
514
519
526
534
542
549
554
558
560
560
556
550
543
534
524
516
510
505
503
502
504
509
515
523
531
539
545
549
551
551
549
543
536
527
519
512
505
501
498
497
499
505
511
518
526
533
539
543
545
544
539
533
525
516
508
499
493
489
487
486
489
494
501
509
517
525
531
536
538
538
535
530
523
515
507
499
492
487
485
485
487
492
499
507
515
522
528
533
536
536
533
527
520
512
504
497
491
486
484
484
487
492
498
505
513
519
526
529
531
531
527
521
514
506
497
489
483
479
476
476
479
484
491
499
506
514
520
525
527
527
524
519
512
504
496
487
481
476
473
472
476
480
487
495
503
510
515
519
522
521
518
512
505
497
488
481
475
470
468
468
472
478
485
492
500
508
514
517
519
518
514
508
501
492
483
475
467
463
460
460
462
467
473
481
488
495
500
504
507
506
504
498
491
483
475
467
460
455
453
453
456
460
467
476
484
492
497
502
505
504
501
495
488
480
472
464
458
454
451
451
455
462
469
478
486
493
499
503
506
507
504
499
492
484
476
469
463
460
459
459
463
469
477
486
496
505
513
519
521
523
521
516
510
504
497
492
487
485
484
486
491
498
506
516
526
535
542
549
553
553
551
547
541
534
527
522
517
515
513
515
520
527
536
546
556
564
572
578
582
582
579
574
568
560
553
547
542
538
537
538
542
547
556
564
572
580
586
589
591
590
586
580
572
564
557
550
544
540
539
539
542
547
555
563
571
577
583
586
587
587
583
577
569
560
551
543
537
532
530
529
532
538
544
551
559
566
572
575
578
577
573
567
560
551
543
534
527
522
519
519
523
528
536
544
552
559
564
570
572
572
568
562
555
546
538
529
523
517
514
513
516
521
528
536
544
551
557
561
563
563
559
553
545
536
528
520
513
509
506
507
509
514
520
528
535
542
548
552
555
554
551
546
539
531
524
517
511
507
505
505
508
512
519
527
534
540
546
549
550
548
543
536
527
519
511
504
497
492
490
489
493
499
506
515
522
529
535
540
542
541
537
531
523
515
507
499
493
488
486
487
491
497
504
513
521
528
534
537
539
539
536
530
523
515
507
499
493
489
487
487
491
496
503
511
518
525
530
534
535
535
530
524
516
508
499
493
487
484
482
483
487
492
499
508
515
522
528
532
534
532
527
521
514
506
499
491
484
481
478
479
482
488
495
504
512
519
524
528
530
529
526
519
512
504
496
488
482
478
476
477
480
486
494
503
511
519
525
528
531
530
526
519
512
504
497
490
485
481
479
480
484
489
496
505
513
520
527
531
533
531
527
520
512
504
497
490
484
480
478
478
481
487
494
502
510
516
522
526
528
528
525
520
513
506
499
492
486
481
480
481
484
490
497
505
512
519
525
529
531
529
525
518
511
503
495
488
482
479
477
478
482
487
494
502
509
516
522
526
528
528
524
518
511
503
495
488
482
479
477
478
481
487
494
502
510
518
525
530
532
532
530
524
517
509
501
494
488
484
482
483
488
494
501
510
519
526
532
535
537
536
532
527
519
510
502
495
488
484
483
483
487
493
500
508
515
522
528
532
534
533
529
523
516
508
499
492
487
483
482
482
486
492
499
507
514
520
526
529
531
530
526
520
513
505
497
489
482
478
476
477
480
486
492
501
509
517
523
526
528
529
526
520
514
506
499
492
487
483
482
483
487
492
499
506
514
520
526
530
532
530
527
521
515
508
500
493
487
483
482
483
487
494
502
510
517
524
528
531
532
531
527
521
515
508
501
494
488
484
483
484
488
494
502
511
519
527
533
537
538
537
533
527
519
512
503
495
488
483
482
483
487
492
500
508
516
523
528
532
533
532
527
521
514
507
499
492
487
483
482
483
486
491
498
507
515
524
530
534
536
536
532
527
519
512
504
496
491
486
485
485
487
493
501
509
516
523
529
532
535
535
531
526
519
513
505
499
495
492
490
491
494
499
506
514
523
530
536
540
541
539
534
526
518
510
501
494
487
483
482
483
486
491
497
504
512
518
524
527
529
527
523
517
510
502
494
487
482
478
476
476
480
485
492
500
509
517
524
529
532
532
529
523
515
507
499
491
484
480
478
478
481
487
493
500
507
514
519
523
524
523
520
515
507
499
491
483
478
473
471
470
472
477
483
490
497
505
512
517
520
520
518
514
508
501
493
486
481
478
477
479
483
489
497
506
514
522
528
533
535
534
531
524
518
510
502
495
488
484
483
484
488
495
503
511
519
527
533
537
540
539
536
531
524
516
508
501
495
490
488
488
491
497
504
513
521
528
533
537
538
537
533
527
519
511
503
495
488
483
481
481
483
487
491
495
496
496
491
484
472
455
435
412
385
358
330
302
278
258
243
235
231
232
238
243
248
256
264
275
288
300
309
318
331
347
369
399
438
486
543
594
640
681
710
732
749
762
769
768
762
750
733
713
691
670
649
631
613
597
583
574
567
564
563
564
566
568
569
569
568
563
556
547
538
528
520
512
507
502
501
502
506
511
517
524
531
537
542
545
547
545
541
535
527
520
512
504
498
494
492
492
495
501
509
516
524
531
537
540
542
541
537
531
524
516
508
501
495
491
489
490
493
499
506
513
520
527
532
536
538
537
533
527
519
511
503
495
489
485
482
483
487
494
501
510
517
524
529
531
532
530
525
519
511
503
495
488
483
480
479
480
484
490
498
506
514
521
527
531
533
532
528
521
513
505
497
491
486
482
481
482
486
490
496
503
509
515
519
523
524
524
520
515
508
502
495
488
482
478
476
477
481
486
493
501
509
516
521
525
526
525
520
514
507
499
491
484
479
475
474
474
477
483
489
497
504
511
516
519
522
520
516
511
502
494
486
479
474
470
468
469
472
477
482
489
496
502
507
511
512
512
509
503
496
487
479
472
466
462
460
460
464
469
476
484
492
498
504
507
508
507
502
496
487
480
472
464
459
456
456
458
463
469
476
484
492
500
505
510
512
511
507
499
491
482
475
467
462
458
458
460
463
469
477
486
494
501
507
511
512
511
507
502
495
488
480
474
470
467
466
468
472
479
487
496
505
513
519
523
527
526
523
518
512
505
498
492
488
486
487
489
495
502
512
522
531
540
548
553
556
556
553
550
544
539
534
528
524
522
522
524
530
537
546
555
564
572
580
585
588
588
585
579
572
565
558
551
546
543
543
546
551
557
565
574
583
591
597
601
603
601
596
590
583
575
568
560
555
551
551
553
557
563
571
579
587
593
599
601
603
601
597
591
583
573
563
555
547
543
540
541
544
550
556
563
569
575
580
583
585
583
578
572
564
557
548
541
536
532
531
531
535
541
548
556
564
569
575
577
578
576
571
564
555
547
539
531
525
521
519
520
523
528
535
543
550
557
562
564
566
564
559
552
545
537
529
522
516
512
510
511
513
518
524
531
539
546
551
554
555
553
549
543
536
528
521
514
508
504
503
504
508
513
520
528
536
541
547
550
552
551
547
541
532
524
516
509
504
500
499
501
504
509
515
523
530
537
541
545
547
545
542
535
527
520
512
505
499
496
495
497
500
507
515
523
532
539
544
547
549
547
542
535
528
520
512
504
498
494
492
494
497
502
509
517
524
531
537
540
542
541
536
529
521
514
506
499
494
491
490
491
495
501
508
516
524
532
539
543
544
543
538
531
523
514
505
498
493
489
488
491
496
503
511
520
528
536
540
543
544
542
536
530
522
514
506
499
495
492
490
492
496
502
509
517
525
532
538
541
542
540
536
529
521
512
505
498
493
489
488
489
493
499
506
513
521
527
532
535
536
535
531
524
517
510
502
495
489
487
487
488
492
498
506
514
522
530
536
539
540
538
534
526
519
511
503
496
491
487
487
487
491
497
504
512
519
525
531
534
535
533
529
523
516
508
501
495
490
486
484
484
488
494
501
510
517
525
531
535
536
534
530
524
516
509
501
494
489
486
485
487
491
498
505
513
521
527
532
534
535
532
528
523
515
508
499
491
483
479
478
479
483
489
496
504
513
520
527
530
531
531
528
521
514
506
499
491
486
482
481
482
486
493
500
508
515
521
526
528
530
528
524
518
510
502
495
488
483
481
480
483
487
494
502
511
518
524
530
532
532
530
525
518
510
502
494
487
482
479
478
480
485
492
500
508
515
522
528
532
534
532
527
521
514
506
498
491
486
482
481
483
487
493
501
509
517
524
530
533
534
532
528
523
515
508
501
494
489
485
483
485
488
495
502
510
517
524
529
531
532
530
525
519
512
505
497
489
484
480
480
480
486
493
501
509
516
524
530
533
536
534
531
524
516
508
500
493
487
483
482
483
487
492
499
508
515
522
527
529
531
529
526
520
513
507
499
492
487
484
484
486
489
496
503
510
517
524
529
532
533
531
528
521
512
503
495
488
483
480
479
481
486
493
500
509
516
524
529
532
533
531
527
520
511
503
494
487
480
478
477
478
481
487
494
502
509
516
521
525
526
524
520
514
505
497
487
480
473
468
467
469
473
481
490
499
508
516
524
529
532
532
528
523
515
508
500
493
487
485
484
487
493
501
509
518
527
535
541
545
546
545
541
534
527
519
510
503
496
493
492
493
497
503
511
519
527
534
539
542
544
542
538
531
524
515
507
500
494
491
489
491
494
498
505
513
519
526
530
532
533
531
525
518
510
500
491
484
478
473
469
467
465
464
463
461
456
449
439
425
408
386
362
335
308
284
262
245
232
223
220
220
221
223
228
236
248
262
274
286
297
312
328
350
379
414
460
515
565
611
650
679
703
721
734
743
746
744
737
727
715
698
679
661
641
621
601
584
569
558
550
544
543
544
547
551
555
559
562
563
563
560
556
548
540
532
525
518
512
508
506
507
511
516
523
531
538
544
550
552
553
551
546
539
531
523
514
507
500
498
497
499
503
509
517
525
532
539
543
545
546
543
539
532
524
516
508
501
495
492
491
492
496
502
510
518
526
531
536
539
540
539
534
527
518
509
501
494
488
485
483
485
489
494
502
509
517
524
529
532
534
532
528
523
515
508
500
494
488
485
484
486
490
497
504
512
519
526
531
534
536
534
529
522
514
506
498
491
485
481
481
482
487
493
500
508
515
521
526
527
528
526
521
514
507
499
491
484
480
476
475
477
482
489
496
505
512
519
524
527
528
527
523
516
508
500
493
486
480
477
476
478
481
487
495
504
511
518
524
527
527
525
520
513
505
496
489
482
476
473
472
473
476
482
489
496
504
510
514
517
518
516
511
504
495
486
478
470
464
460
457
458
462
468
475
483
489
496
500
503
504
502
497
490
481
473
466
459
454
451
451
452
457
463
471
479
487
494
499
502
503
500
496
489
480
473
465
459
454
451
450
452
457
465
474
483
491
498
504
508
508
506
502
495
487
480
472
466
462
460
460
463
468
476
484
494
503
511
518
522
524
524
521
517
511
505
498
493
490
487
489
493
499
507
516
526
535
543
550
555
558
558
556
551
544
538
532
526
521
519
521
525
531
539
548
558
567
575
582
587
589
588
584
579
572
565
557
550
545
542
542
543
549
555
563
572
580
588
593
597
599
597
593
587
579
571
563
556
550
546
544
546
550
556
563
571
578
584
589
591
592
590
584
577
568
560
551
544
539
535
535
536
540
545
552
559
565
571
575
578
578
576
571
563
555
547
538
531
525
521
520
521
526
531
538
545
553
560
564
567
568
565
559
551
543
535
526
519
513
510
509
511
515
520
527
535
542
548
553
555
557
554
550
543
535
527
519
512
507
502
502
503
507
513
520
528
537
544
549
552
552
550
544
537
528
519
511
503
496
492
489
490
494
500
507
515
523
529
535
538
539
536
531
524
515
508
501
494
490
487
486
487
493
500
508
517
525
531
537
540
541
540
536
530
522
515
507
500
496
494
495
496
501
508
516
525
533
541
546
548
550
547
543
536
528
520
512
507
501
498
497
500
505
511
519
527
535
542
547
549
551
548
544
538
530
523
515
508
504
501
500
503
508
515
523
532
540
547
552
555
555
552
547
540
531
523
514
508
503
499
499
501
505
512
519
527
535
543
549
553
555
553
549
542
534
526
518
511
506
503
502
504
509
516
524
531
539
545
550
553
554
551
547
540
531
525
517
510
505
502
501
503
508
514
521
529
536
543
549
551
553
551
546
539
531
523
515
508
503
499
498
500
505
512
519
527
536
542
547
550
551
550
545
538
531
523
515
508
503
499
499
500
505
511
518
525
532
539
543
547
548
546
541
533
525
516
508
502
496
493
493
495
499
506
513
521
527
533
538
540
541
539
535
528
521
513
505
499
493
489
488
490
494
499
507
515
522
529
535
538
539
537
532
525
517
508
500
493
488
485
486
488
493
500
507
515
523
529
535
537
538
536
531
524
517
509
500
492
486
482
480
481
486
492
499
508
515
521
527
530
531
528
524
518
510
501
492
485
480
476
477
478
483
490
497
505
513
519
524
527
528
526
521
515
507
500
492
485
480
476
476
478
483
489
497
504
512
519
523
526
527
526
521
514
506
498
490
484
479
477
477
480
484
491
498
507
515
522
527
530
530
527
523
515
508
500
492
486
480
477
476
479
483
489
497
505
512
518
523
526
527
524
520
514
507
499
491
484
480
476
476
479
484
491
499
508
516
523
528
530
530
527
522
515
508
499
491
484
479
476
475
477
481
488
496
504
512
519
525
528
530
529
524
518
511
504
496
489
483
480
478
479
482
488
496
504
512
518
523
526
527
525
520
514
507
500
493
487
482
479
479
480
486
492
499
508
515
522
527
529
531
528
522
515
506
497
489
482
477
473
473
475
480
486
493
502
509
515
520
523
525
523
520
515
508
501
494
487
482
478
477
478
482
488
496
504
511
518
522
525
527
525
520
513
505
497
489
483
478
476
476
479
485
492
498
506
513
518
522
524
526
523
518
511
503
494
485
477
471
467
467
469
474
480
487
496
504
511
516
518
518
515
509
502
493
486
479
472
468
466
467
470
477
484
493
503
511
518
523
526
527
526
520
515
508
502
495
490
486
484
485
488
495
502
509
518
526
533
537
540
540
537
532
526
518
511
503
496
491
487
486
488
494
500
508
515
523
529
534
536
537
534
529
522
515
507
498
491
485
481
480
481
486
492
500
508
515
522
526
528
527
524
517
508
498
487
475
463
450
438
427
415
403
391
379
367
354
341
326
312
299
285
271
258
248
239
228
216
208
204
207
215
225
238
254
273
297
328
366
407
454
512
567
614
654
681
698
709
715
716
713
708
702
696
690
684
677
671
663
652
640
626
612
596
581
567
554
543
534
528
525
524
527
531
537
544
551
558
563
566
567
563
558
551
541
533
524
517
512
509
509
511
516
522
529
536
543
548
552
555
555
552
547
539
531
523
515
507
502
499
499
501
507
514
522
531
539
545
550
552
554
551
545
538
529
521
513
505
499
495
494
495
499
505
511
519
526
532
537
540
540
538
534
527
520
512
503
496
491
487
487
489
495
502
510
519
527
534
539
542
542
539
534
526
518
510
502
497
491
488
488
490
495
500
508
516
523
529
533
534
533
530
524
517
509
501
494
487
481
478
478
480
486
493
501
509
515
521
524
526
526
523
517
511
503
496
488
482
477
475
475
478
484
491
499
507
514
520
525
527
527
523
518
511
503
494
486
479
474
471
472
475
480
486
494
502
509
515
519
519
519
516
510
503
494
486
477
470
465
462
462
463
469
475
481
488
494
500
503
505
506
504
498
491
482
473
465
459
454
451
450
452
456
462
469
478
486
493
497
500
499
496
490
482
473
466
459
452
447
444
444
447
452
458
465
473
480
487
493
496
497
496
492
486
478
471
463
457
452
450
449
452
458
464
472
481
489
496
503
507
509
508
505
499
492
485
478
472
467
466
466
470
475
484
493
503
512
519
526
530
534
534
530
525
518
512
507
502
499
498
501
505
513
522
532
542
551
558
564
568
570
569
567
561
555
549
542
536
532
531
532
536
542
550
558
567
576
583
589
592
594
593
590
583
576
569
562
556
551
548
547
549
553
558
565
573
580
586
590
592
592
588
583
575
567
559
551
545
540
538
537
539
542
547
554
562
569
576
581
583
583
580
574
566
557
548
540
533
526
522
521
522
526
533
540
548
555
560
564
566
566
562
556
547
536
526
516
508
500
497
496
498
502
507
513
519
526
530
535
537
538
535
529
522
515
507
499
491
484
480
477
477
480
486
494
502
509
515
520
522
522
518
512
505
496
488
480
472
467
464
463
465
470
475
483
490
497
503
507
509
508
506
502
494
485
477
470
463
459
455
454
455
459
465
473
481
489
496
501
503
503
499
494
487
480
473
465
459
455
453
454
457
463
470
478
486
492
499
503
504
504
500
495
487
479
472
464
458
454
451
452
455
461
468
476
486
494
500
505
507
507
503
496
488
480
472
465
459
455
453
453
456
462
470
477
486
494
501
506
510
511
508
503
496
488
481
474
467
463
460
461
463
469
477
485
494
501
508
513
517
518
515
509
503
495
487
480
473
469
467
467
471
477
484
492
501
509
516
521
523
524
521
515
508
501
494
487
480
476
474
475
478
483
490
498
507
515
521
527
530
530
527
522
514
506
499
492
487
483
481
481
483
489
496
505
513
521
529
535
539
539
536
530
523
516
509
502
496
492
489
489
492
498
505
513
522
531
537
541
543
543
540
535
528
520
513
506
500
496
492
492
495
501
508
516
525
533
540
546
548
549
546
542
535
527
521
514
508
502
500
500
502
507
513
520
529
537
544
549
551
552
550
544
537
529
522
513
508
503
499
499
502
507
515
522
530
538
544
549
550
550
547
541
534
524
515
507
501
497
495
496
500
506
514
522
530
537
544
549
551
552
550
545
538
530
521
513
508
504
502
503
505
511
517
525
532
540
546
550
551
551
549
543
535
526
517
509
503
499
496
496
500
505
513
521
530
537
542
546
548
550
546
541
534
525
518
510
504
500
498
498
501
507
513
520
529
537
543
547
549
548
545
540
533
525
518
510
504
500
498
499
503
508
515
523
532
540
545
549
551
551
548
543
537
529
521
513
508
505
504
504
507
512
519
526
535
542
547
551
553
553
550
545
537
529
522
514
508
504
502
502
506
512
519
527
535
543
549
553
556
555
552
546
538
530
523
516
511
507
505
505
508
514
521
529
537
545
552
557
559
560
556
550
542
532
524
515
509
504
501
502
505
511
517
523
530
536
543
547
550
551
548
543
537
528
521
513
508
504
503
504
508
513
520
527
535
542
550
554
557
556
553
548
541
532
526
518
511
507
505
505
508
513
520
528
537
545
552
556
559
559
556
551
543
536
528
521
515
510
507
507
509
514
520
527
535
542
547
551
552
551
548
542
534
526
519
512
506
502
500
501
504
509
516
524
531
538
543
547
550
549
545
538
528
518
508
499
492
487
485
484
487
493
499
506
514
520
526
530
532
531
527
520
512
504
496
488
483
480
479
481
486
492
499
508
516
524
531
536
539
540
536
531
524
517
511
505
500
498
497
499
502
508
515
522
531
538
545
550
552
552
548
543
536
528
521
514
507
503
500
501
503
509
516
523
531
538
544
549
551
551
548
542
535
526
518
509
502
498
495
496
499
504
511
518
527
533
538
541
542
541
536
529
520
509
497
483
470
456
444
431
419
408
397
385
373
360
347
334
321
308
295
281
269
260
249
236
226
218
217
222
230
241
255
274
300
331
369
414
463
523
582
631
672
701
718
728
733
734
730
723
716
708
700
694
688
683
678
670
659
647
634
619
606
591
577
564
553
544
537
535
535
537
542
548
555
561
566
570
572
571
566
560
552
543
534
527
520
515
512
513
515
520
528
535
543
551
556
559
560
560
556
550
542
534
526
518
512
507
505
505
508
513
519
527
536
542
547
550
551
550
546
540
531
523
515
507
502
497
495
496
498
504
510
516
524
531
537
542
543
543
538
532
524
516
509
502
496
492
491
492
494
499
506
515
524
531
537
540
542
542
538
531
524
515
507
500
493
487
485
485
487
494
501
508
516
524
530
534
536
537
534
528
521
513
505
497
490
485
481
480
481
486
492
499
507
515
520
525
527
528
524
518
511
503
496
489
484
480
478
479
481
486
493
500
508
515
521
525
527
526
521
515
508
499
491
483
477
473
471
472
474
479
486
493
501
508
513
516
518
518
514
508
499
491
482
473
467
462
460
460
463
468
475
483
491
498
503
506
507
505
501
494
485
476
467
460
453
449
447
448
451
456
463
471
478
485
492
496
498
498
494
488
481
474
467
460
454
450
447
448
451
455
463
470
477
484
490
495
497
498
495
490
484
476
470
463
458
454
453
454
458
464
471
479
488
496
503
508
511
512
508
504
497
491
484
476
471
467
465
467
470
476
484
494
504
513
521
528
532
535
534
529
524
518
511
505
501
498
498
500
506
513
522
531
542
551
560
565
569
570
568
563
558
551
544
537
533
530
530
533
538
545
554
563
573
581
587
591
594
593
590
584
577
569
561
554
549
545
544
544
548
555
562
571
579
587
593
598
600
599
595
591
583
575
567
560
553
547
545
545
548
553
560
567
574
581
587
591
592
593
589
583
576
568
560
553
546
541
538
539
542
547
554
561
569
575
580
582
582
580
575
568
559
551
542
533
527
523
520
521
524
529
536
543
551
558
564
568
568
567
563
557
549
540
531
523
517
512
510
511
515
520
526
534
541
548
554
558
559
559
555
549
541
532
525
517
511
507
504
504
507
512
518
526
534
542
548
553
553
553
549
543
535
527
520
513
507
503
501
501
504
510
516
524
532
539
545
549
551
550
545
540
532
524
515
508
503
498
496
497
501
507
514
520
527
535
540
545
547
547
543
538
531
522
514
506
499
494
491
492
495
499
506
514
522
529
535
539
540
539
535
530
522
513
505
497
491
487
486
487
492
498
506
513
521
527
533
537
539
539
536
529
522
513
506
500
494
490
489
491
494
499
507
514
522
528
534
539
541
542
539
534
527
518
511
503
496
490
487
488
491
497
504
512
519
527
532
536
537
537
532
526
518
510
501
494
487
484
483
484
488
494
502
510
518
526
531
536
537
536
532
526
519
511
504
497
492
488
487
488
492
499
507
515
524
532
538
543
544
543
540
534
526
518
510
503
497
492
489
491
493
499
506
513
522
528
534
538
539
537
532
526
517
508
501
494
488
485
483
483
486
492
499
508
515
522
528
531
534
533
529
523
515
507
499
492
486
482
480
481
485
492
499
507
516
524
531
536
537
537
533
527
521
513
506
499
493
489
487
487
490
495
502
509
516
523
528
531
532
532
528
523
515
507
499
490
485
481
480
482
486
491
499
506
515
522
527
532
534
532
527
521
513
505
497
489
483
480
478
479
482
487
494
502
510
517
523
527
529
528
525
519
512
504
496
489
483
480
478
479
482
487
494
502
510
517
524
529
531
531
527
521
513
506
498
491
485
481
480
480
484
490
497
505
512
519
525
529
529
529
525
519
512
503
495
488
483
479
477
479
482
488
495
503
511
518
525
529
530
530
525
519
511
504
495
488
483
479
477
478
481
487
495
503
511
517
523
527
528
528
523
517
