0
0
0
223
437
647
913
1022
1023
1022
1023
1022
904
669
430
215
9
0
0
0
0
0
0
180
381
585
839
1022
1023
1022
1022
1022
832
607
370
160
0
0
0
0
0
0
0
186
385
591
841
1022
1022
1022
1023
1021
792
561
323
103
0
0
0
0
0
0
0
116
323
531
784
1005
1022
1022
1023
984
767
537
304
93
0
0
0
0
0
0
0
123
332
539
794
1014
1022
1022
1023
1018
794
561
325
121
0
0
0
0
0
0
0
155
359
557
820
1022
1022
1022
1023
1022
831
597
357
142
0
0
0
0
0
0
0
189
414
634
902
1022
1023
1022
1023
1022
937
718
487
282
84
0
0
0
0
0
21
206
387
566
801
1003
1023
1022
1022
948
734
498
260
40
0
0
0
0
0
0
0
56
259
467
731
961
1023
1022
1023
971
765
536
305
91
0
0
0
0
0
0
0
15
214
410
654
872
1006
1022
962
836
626
396
160
0
0
0
0
0
0
0
0
0
207
418
683
920
1023
1022
1022
943
727
504
271
67
0
0
0
0
0
0
0
71
283
486
739
973
1022
1022
1022
974
775
541
312
110
0
0
0
0
0
0
0
110
312
510
762
980
1022
1022
1023
958
734
499
264
52
0
0
0
0
0
0
0
163
375
585
848
1022
1022
1022
1023
1022
875
639
402
189
0
0
0
0
0
0
0
119
323
531
779
1012
1022
1022
1023
1021
807
572
332
123
0
0
0
0
0
0
0
107
315
512
763
987
1023
1022
1022
942
724
481
231
10
0
0
0
0
0
0
0
0
135
340
594
819
972
1010
940
818
601
360
116
0
0
0
0
0
0
0
0
0
134
352
620
862
1020
1022
1022
902
692
458
218
5
0
0
0
0
0
0
0
76
311
542
811
1022
1022
1022
1023
1022
937
720
492
284
91
0
0
0
0
0
139
356
578
793
1022
1022
1023
1022
1023
1022
1022
900
668
467
266
76
0
0
0
131
335
558
773
979
1022
1022
1023
1022
1023
1022
1023
1022
848
630
440
250
112
73
127
243
429
637
859
1022
1022
1023
1022
1022
1023
1022
1023
1022
949
743
534
346
215
169
223
349
548
766
989
1022
1022
1023
1022
1022
1023
1022
1022
1023
1022
942
746
563
444
409
479
598
808
1021
1022
1023
1023
1022
1022
1022
1023
1022
1023
1022
1022
1023
1022
915
775
725
764
877
1022
1022
1022
1023
1022
1023
1022
1022
1023
1022
1022
1023
1022
1023
1022
920
768
716
757
849
1016
1023
1022
1023
1022
1023
1023
1022
1023
1022
1023
1023
1022
1022
824
611
453
382
409
496
655
836
1020
1023
1022
1023
1023
1022
1023
1022
1023
1023
864
643
434
232
87
29
70
184
369
571
785
995
1022
1022
1022
1022
1022
1022
1022
1022
796
560
309
80
0
0
0
0
32
214
389
566
811
1021
1022
1022
1023
1022
872
640
409
211
25
0
0
0
0
0
12
245
466
677
945
1022
1022
1022
1023
1022
1022
831
587
369
162
0
0
0
0
0
41
239
438
628
874
1022
1022
1022
1023
1022
944
712
478
269
61
0
0
0
0
0
25
248
493
725
999
1023
1023
1022
1022
1022
1022
799
539
294
79
0
0
0
0
0
0
130
338
539
798
1022
1023
1022
1022
1022
861
611
358
144
0
0
0
0
0
0
0
60
273
474
749
993
1022
1022
1023
1022
851
613
367
145
0
0
0
0
0
0
0
0
134
342
605
843
1000
1022
1022
929
706
476
271
89
0
0
0
0
0
0
0
159
435
675
969
1022
1022
1022
1023
1022
1022
961
717
497
313
124
0
0
0
54
244
451
673
897
1022
1022
1022
1022
1023
1022
1023
1022
1022
863
684
509
385
329
384
506
715
936
1022
1023
1022
1022
1022
1022
1023
1022
1022
1023
1022
951
728
532
395
339
377
462
632
821
1018
1023
1022
1022
1022
1022
1023
1022
1023
1022
972
724
482
247
68
0
13
116
297
505
721
930
1022
1023
1022
1022
1023
1022
1022
1022
769
526
292
68
0
0
0
0
128
333
532
728
981
1022
1022
1022
1023
1022
1021
775
504
271
46
0
0
0
0
0
0
108
327
531
775
1012
1022
1022
1023
994
763
539
293
71
0
0
0
0
0
0
0
0
163
357
599
841
1009
1022
1015
884
669
402
126
0
0
0
0
0
0
0
0
0
0
56
308
566
764
843
817
729
533
294
39
0
0
0
0
0
0
0
0
0
0
0
240
478
642
698
654
544
338
86
0
0
0
0
0
0
0
0
0
0
0
0
139
388
574
662
628
540
335
87
0
0
0
0
0
0
0
0
0
0
0
0
0
192
384
481
445
347
158
0
0
0
0
0
0
0
0
0
0
0
0
0
292
584
819
937
943
859
682
465
246
43
0
0
0
0
0
0
0
213
482
774
1022
1023
1023
1022
1023
1022
1023
953
660
388
119
0
0
0
0
0
0
160
400
629
890
1022
1023
1022
1023
1022
1022
935
688
478
280
76
0
0
0
0
169
395
620
829
1022
1023
1022
1022
1023
1022
1023
1022
976
774
590
417
284
244
318
464
688
944
1022
1023
1022
1023
1023
1022
1023
1022
1023
1023
1022
1020
743
504
312
195
184
256
396
580
757
924
1022
1022
1022
1022
1023
1022
1022
866
551
271
20
0
0
0
0
0
0
0
160
399
694
1004
1022
1022
1023
1022
1022
891
647
436
243
46
0
0
0
0
123
333
563
785
1021
1022
1022
1022
1023
1022
1022
795
526
281
45
0
0
0
0
0
0
0
185
411
679
957
1023
1022
1023
1022
899
648
379
134
0
0
0
0
0
0
0
5
242
473
744
1020
1022
1022
1023
1022
1022
881
641
427
232
35
0
0
0
0
96
299
495
667
870
1022
1023
1022
1022
1022
805
534
229
0
0
0
0
0
0
0
0
0
0
0
244
473
668
753
727
619
448
216
0
0
0
0
0
0
0
0
0
0
24
262
552
855
1022
1022
1023
1022
1022
867
634
423
231
39
0
0
0
0
186
427
662
874
1022
1022
1022
1022
1023
1022
1022
1021
704
422
163
0
0
0
0
0
0
0
167
355
596
856
1022
1022
1022
929
734
497
224
0
0
0
0
0
0
0
0
0
0
101
364
643
848
937
909
818
639
411
168
0
0
0
0
0
0
0
0
0
7
237
473
729
922
1006
981
887
702
483
235
16
0
0
0
0
0
0
0
0
154
407
711
1018
1022
1022
1022
1022
1022
1019
767
518
264
30
0
0
0
0
153
364
585
788
1008
1022
1022
1022
1023
1022
1022
992
764
524
315
110
0
0
0
0
0
233
452
636
845
1022
1022
1022
1023
1022
1022
873
621
365
121
0
0
0
0
0
0
0
0
291
619
948
1022
1022
1023
1022
1022
884
633
373
160
0
0
0
0
0
0
0
161
383
642
911
1022
1022
1022
984
762
482
168
0
0
0
0
0
0
0
0
0
0
143
435
724
937
1022
1023
1022
924
736
512
304
120
0
0
0
0
0
0
154
362
563
797
1016
1022
1022
1022
1022
867
587
302
56
0
0
0
0
0
0
0
0
219
482
774
1022
1023
1022
1023
1022
1022
860
611
388
190
14
0
0
0
0
193
425
675
919
1022
1022
1022
1022
1023
1022
1022
1022
902
670
451
238
56
0
0
33
181
374
582
791
1022
1022
1022
1022
1023
1022
1022
1022
1022
825
626
420
238
125
109
177
313
513
737
944
1022
1022
1023
1022
1023
1023
1022
1022
784
531
292
41
0
0
0
0
0
105
300
482
703
953
1022
1022
1022
1022
995
771
521
297
91
0
0
0
0
0
0
22
216
402
625
854
1022
1022
1022
1022
871
642
395
164
0
0
0
0
0
0
0
0
108
312
535
784
977
1022
1022
997
831
606
356
126
0
0
0
0
0
0
0
0
145
352
593
867
1022
1022
1022
1022
1022
838
593
352
131
0
0
0
0
0
0
0
0
113
316
567
791
959
1018
981
889
739
567
412
259
135
64
47
99
197
345
530
708
857
1019
1022
1023
1022
1023
1022
862
547
211
0
0
0
0
0
0
0
0
0
0
0
140
422
652
792
815
752
604
399
173
0
0
0
0
0
0
0
0
0
0
4
217
435
615
703
679
577
406
177
0
0
0
0
0
0
0
0
0
0
0
0
216
492
720
856
880
829
709
516
313
121
0
0
0
0
0
0
0
0
188
396
629
877
1022
1022
1022
1022
983
790
574
364
195
13
0
0
0
0
33
210
405
589
778
998
1022
1022
1022
1022
964
775
571
382
210
26
0
0
0
0
26
221
424
623
851
1022
1022
1022
1022
1022
1021
783
527
300
111
0
0
0
0
0
3
230
443
656
911
1022
1023
1022
1023
1022
1022
917
649
408
215
46
0
0
0
0
163
374
576
768
976
1022
1023
1022
1023
1022
1022
948
669
403
168
0
0
0
0
0
0
108
328
544
784
1022
1022
1022
1023
1022
1022
1015
770
543
329
119
0
0
0
0
0
207
423
639
880
1022
1022
1022
1022
1022
1023
1023
964
777
590
411
238
144
156
244
388
582
799
1012
1022
1022
1023
1022
1023
1022
1022
1022
1022
1022
860
691
531
447
464
553
717
920
1022
1023
1022
1022
1022
1022
1022
1022
1022
1023
1022
1022
1022
936
768
663
647
707
836
1017
1022
1023
1022
1022
1023
1022
1023
1022
1022
1022
1022
1022
1022
904
704
585
562
621
754
947
1022
1022
1022
1022
1022
1022
1023
1023
1023
1023
1022
1023
1022
836
643
524
507
568
687
866
1022
1022
1022
1023
1023
1022
1023
1022
1023
1023
1022
1022
927
733
552
437
417
478
601
780
977
1022
1022
1022
1023
1022
1023
1022
1023
1023
1022
956
745
532
335
207
184
223
348
517
703
887
1022
1023
1023
1022
1023
1022
1023
1022
950
720
504
302
116
0
0
31
148
331
517
702
913
1022
1022
1022
1022
1022
1023
1022
839
629
445
267
99
7
0
82
223
419
618
811
1010
1023
1023
1022
1023
1022
1023
1022
900
679
486
301
146
59
76
182
353
583
828
1022
1022
1023
1023
1022
1023
1022
1023
1023
1022
1023
1022
873
754
732
849
1022
1022
1023
1022
1023
1022
1022
1023
1022
1023
1022
1022
1022
1022
1022
1022
1022
942
892
965
1013
1008
957
834
731
696
755
858
896
871
797
667
435
177
0
0
0
0
0
0
0
0
0
0
0
0
227
417
515
495
394
243
36
0
0
0
0
0
0
0
0
0
0
139
411
695
984
1022
1022
1022
1022
999
716
422
132
0
0
0
0
0
0
0
0
0
0
196
472
709
849
879
831
719
533
317
110
0
0
0
0
0
0
0
0
0
173
348
553
723
817
814
726
569
347
101
0
0
0
0
0
0
0
0
0
0
0
0
227
433
565
609
545
443
271
65
0
0
0
0
0
0
0
0
0
0
0
0
190
404
536
560
505
396
231
50
0
0
0
0
0
0
0
0
0
0
0
38
199
307
321
238
61
0
0
0
0
0
0
0
0
0
0
0
0
0
0
0
0
260
435
495
472
384
218
28
0
0
0
0
0
0
0
0
0
0
0
0
187
355
420
404
321
265
157
0
0
0
0
0
0
0
0
0
108
324
541
771
1018
1023
1022
1022
1022
1022
1021
755
487
251
15
0
0
0
0
0
0
133
341
550
803
1019
1022
1022
1022
1022
851
628
412
208
1
0
0
0
0
0
0
120
313
520
760
975
1022
1022
1022
949
743
499
252
27
0
0
0
0
0
0
0
0
90
292
552
790
952
1006
972
878
704
496
294
115
0
0
0
0
0
0
135
369
605
842
1022
1023
1022
1022
1022
1023
1022
852
596
361
113
0
0
0
0
0
0
119
311
494
719
944
1022
1022
1022
908
717
500
284
106
0
0
0
0
0
16
254
492
746
993
1022
1023
1022
1022
1022
1023
1023
1022
857
617
375
152
0
0
0
21
179
360
536
724
965
1022
1022
1022
1022
1022
883
641
392
186
0
0
0
0
0
0
5
245
483
719
1007
1022
1022
1022
1022
1022
1023
857
609
387
171
0
0
0
0
0
123
327
529
718
939
1022
1022
1022
1022
1021
791
530
276
63
0
0
0
0
0
0
0
195
428
659
925
1022
1022
1022
1022
1022
860
578
287
38
0
0
0
0
0
0
0
10
249
467
717
945
1022
1022
1009
836
596
342
86
0
0
0
0
0
0
0
0
67
280
499
761
995
1022
1022
1022
1022
784
512
261
45
0
0
0
0
0
0
0
151
384
633
936
1023
1022
1023
1022
1023
1022
927
697
495
300
137
0
0
0
0
128
309
525
728
991
1022
1022
1022
1022
1022
1022
874
639
428
243
50
0
0
0
125
327
529
732
949
1022
1022
1022
1023
1022
1022
1023
1022
948
794
595
399
286
282
357
489
710
934
1022
1022
1022
1023
1022
1023
1022
1023
1023
1022
1022
861
647
428
285
231
281
383
550
728
927
1022
1023
1023
1022
1023
1022
1023
1022
1022
905
693
484
297
190
163
156
235
408
603
783
973
1022
1022
1022
1022
1022
1022
1023
1016
758
561
355
135
0
0
1
124
341
575
827
1022
1023
1023
1022
1022
1022
1023
1023
1022
1022
966
772
583
439
394
454
577
776
984
1022
1022
1023
1023
1022
1022
1022
1023
1022
1022
1022
951
775
597
478
441
524
671
884
1022
1022
1022
1022
1022
1022
1022
1022
1022
1023
1022
1022
1022
1021
797
631
561
608
728
921
1022
1023
1022
1022
1023
1022
1022
1022
1023
1023
1022
1022
803
548
295
102
19
34
123
282
467
668
867
1022
1022
1022
1022
1022
1023
1022
816
538
301
80
0
0
0
0
0
34
199
344
482
706
914
1022
1022
1022
915
638
345
67
0
0
0
0
0
0
0
0
0
0
55
341
607
768
833
795
731
579
355
131
0
0
0
0
0
0
0
0
55
281
521
784
1017
1022
1022
1022
1022
972
756
529
318
116
0
0
0
0
0
175
391
621
836
1022
1022
1022
1022
1022
1022
1022
944
700
455
206
19
0
0
0
44
229
420
624
840
1022
1023
1022
1022
1022
1022
1022
1021
785
586
399
235
98
51
105
220
411
598
785
960
1022
1023
1022
1022
1022
1022
1022
810
551
321
103
0
0
0
0
0
33
231
442
657
897
1022
1022
1022
1022
1022
1022
849
608
417
219
24
0
0
0
0
109
273
477
664
900
1022
1022
1022
1022
1022
992
795
595
423
244
62
0
0
0
0
158
350
549
728
945
1022
1022
1022
1022
1022
948
733
502
288
77
0
0
0
0
0
52
255
450
639
881
1022
1022
1022
1022
1022
949
731
500
284
88
0
0
0
0
0
63
252
440
632
884
1023
1022
1022
1022
1022
1022
886
657
465
287
117
0
0
0
70
252
442
639
840
1022
1022
1022
1022
1022
1022
1022
1020
752
554
363
166
0
0
0
28
173
319
498
683
916
1022
1022
1022
1022
1022
938
704
461
271
71
0
0
0
0
0
0
150
346
547
776
1007
1022
1022
1022
1022
918
711
487
294
98
0
0
0
0
0
22
201
380
571
809
1021
1022
1022
1022
1022
881
643
416
219
25
0
0
0
0
0
0
74
274
471
707
943
1022
1022
1022
1022
915
710
492
295
100
0
0
0
0
0
0
187
364
541
750
979
1022
1022
1022
1009
803
575
339
148
0
0
0
0
0
0
0
27
230
419
655
880
1022
1022
1022
938
754
537
302
92
0
0
0
0
0
0
0
0
64
235
452
663
799
849
797
682
485
251
6
0
0
0
0
0
0
0
0
0
0
28
271
509
675
747
724
634
451
233
17
0
0
0
0
0
0
0
0
0
0
159
425
705
902
994
992
920
801
619
406
237
67
0
0
0
0
0
42
227
412
578
774
964
1022
1022
1022
1021
805
536
253
0
0
0
0
0
0
0
0
0
0
0
159
420
616
721
746
699
563
423
270
141
7
0
0
0
0
0
0
187
377
534
723
896
986
984
906
765
540
290
38
0
0
0
0
0
0
0
0
0
0
0
193
458
659
748
710
620
427
231
21
0
0
0
0
0
0
0
0
0
0
0
10
228
372
424
386
268
79
0
0
0
0
0
0
0
0
0
0
0
0
0
30
255
422
496
464
391
263
86
0
0
0
0
0
0
0
0
0
0
0
0
50
273
435
499
473
363
156
0
0
0
0
0
0
0
0
0
0
0
0
0
37
231
367
414
372
265
61
0
0
0
0
0
0
0
0
0
0
0
0
0
0
61
262
346
335
239
55
0
0
0
0
0
0
0
0
0
0
0
0
103
353
572
756
849
810
691
480
199
0
0
0
0
0
0
0
0
0
0
0
0
0
0
146
214
169
41
0
0
0
0
0
0
0
0
0
0
0
0
0
0
0
0
6
94
93
23
0
0
0
0
0
0
0
0
0
0
0
0
0
0
0
0
0
0
0
0
0
0
0
0
0
0
0
0
0
0
0
0
0
0
0
86
211
248
164
44
0
0
0
0
0
0
0
0
0
0
0
0
0
0
0
0
0
0
0
0
0
0
0
0
0
0
0
0
0
0
0
0
0
0
0
0
0
0
0
0
0
0
0
0
0
0
0
0
0
0
0
0
0
0
0
0
0
0
0
0
0
0
0
0
0
0
0
0
0
0
0
0
0
0
0
0
0
0
0
0
0
0
0
0
0
0
0
0
0
0
0
0
0
0
0
0
0
0
0
0
0
0
0
0
0
0
0
0
0
0
0
0
0
0
0
0
0
0
0
0
0
0
0
0
0
0
0
0
0
0
0
0
0
0
0
0
0
0
0
0
0
0
0
0
0
0
0
0
0
0
0
0
0
66
323
642
912
1022
1023
1023
1022
1022
1022
1022
1023
1023
1022
1022
1023
1023
1022
1022
1022
1022
1022
1023
1022
1022
1023
1023
1022
1022
1022
1022
1023
1023
1022
1022
1022
1022
1022
1022
1022
1022
1022
1023
1022
1022
1023
1023
1022
1022
1022
1022
1023
1023
1022
1022
1022
1023
1022
1022
1023
1022
1023
1022
1022
1022
1022
1022
1023
1022
1022
1022
1023
1023
1022
1022
1022
1023
1023
1022
1022
1022
1023
1022
1022
1022
1022
1023
1023
1022
1022
1022
1023
1023
1022
1022
1022
1023
1023
1022
1022
1022
1022
1023
1022
1022
1022
1023
1023
1022
1022
1022
1023
1023
1022
1022
1022
1023
1022
1022
1023
1022
1022
1023
1022
1022
1022
1023
1023
1022
1022
1022
1023
1022
1022
1022
1022
1022
1023
1022
1022
1022
1023
1023
1022
1022
1022
1023
1023
1022
1022
1023
1023
1023
1022
1022
1022
1023
1023
1022
1022
1022
1023
1023
1022
1023
1022
1023
1022
1022
1022
1023
1023
1023
1022
1022
1023
1022
1022
1022
1022
1023
1023
1023
1022
1022
1022
1022
1023
1022
1022
1022
1022
1023
1004
896
879
964
1022
1022
1022
1023
1023
1023
1022
1022
1022
1022
1023
1022
1022
1022
1022
1022
856
740
725
783
905
1022
1022
1022
1023
1022
1022
1022
1023
1023
1023
1022
1022
1022
932
720
515
397
387
454
589
760
943
1022
1023
1023
1022
1022
1022
1022
1023
1022
1022
796
561
333
132
24
27
108
266
451
656
851
1022
1022
1022
1022
1022
1022
1022
1022
823
581
340
110
0
0
0
0
6
219
430
634
873
1022
1022
1022
1022
1022
1022
918
654
409
182
0
0
0
0
0
0
0
176
367
596
855
1022
1022
1022
982
793
526
242
0
0
0
0
0
0
0
0
0
0
0
248
514
721
839
820
711
527
274
0
0
0
0
0
0
0
0
0
0
0
0
0
151
334
417
382
252
58
0
0
0
0
0
0
0
0
0
0
0
0
0
0
0
0
53
35
0
0
0
0
0
0
0
0
0
0
0
0
0
0
0
0
0
0
0
0
0
0
0
0
0
0
0
0
0
0
0
0
0
0
0
0
0
0
0
0
0
0
0
0
0
0
0
0
0
0
0
0
0
0
0
0
0
0
0
0
0
0
0
0
0
0
0
0
0
0
0
0
0
0
0
0
0
0
0
0
0
0
0
0
0
0
0
0
0
0
0
0
0
0
0
0
0
272
634
953
1022
1023
1022
1022
1023
1023
1023
1022
1022
1022
1022
1022
1022
1022
1023
1023
1023
1022
1022
1022
1022
1023
1022
1022
1022
1023
1023
1022
1022
1022
1022
1023
1022
1022
1022
1023
1023
1022
1022
1022
1022
1023
1022
1022
1023
1023
1023
1022
1022
1022
1022
1022
1022
1023
1022
1022
1023
1022
1022
1022
1022
1023
1022
1022
1022
1022
1023
1022
1022
1022
1022
1022
1022
1022
1022
1022
1022
1022
1022
1022
1023
1023
1022
1022
1023
1022
1022
1022
1022
989
983
975
936
911
881
802
814
832
851
889
893
864
830
797
712
646
661
640
631
639
617
593
579
588
604
583
587
611
692
737
766
781
768
705
712
715
671
599
517
466
419
355
265
167
55
0
0
0
0
0
0
0
0
0
0
0
0
0
0
0
0
0
0
0
0
0
0
0
0
0
0
0
0
0
0
0
0
0
0
0
0
0
0
0
0
0
0
0
0
0
0
0
0
0
0
0
0
0
0
0
0
0
0
0
0
0
0
0
0
0
0
0
0
0
0
0
0
0
0
0
0
0
0
0
67
214
387
522
642
753
856
951
1022
1022
1022
1022
1021
938
815
682
549
468
360
257
229
251
367
506
658
804
915
950
924
875
750
597
551
536
560
597
651
696
720
740
739
702
729
772
837
919
989
1023
1022
1022
1022
1022
1023
1022
1022
1022
1009
1022
1022
1022
1022
1022
1022
1022
1022
1022
1022
1023
1022
1022
1022
1022
1023
1022
1022
1022
1022
856
647
529
469
463
503
508
517
547
574
598
621
672
723
787
816
839
884
911
927
969
1005
1011
970
960
970
921
859
792
740
720
694
691
719
749
795
824
811
801
868
945
967
984
977
909
824
762
708
697
688
707
763
795
779
787
795
798
795
839
880
888
857
814
783
765
764
775
788
826
885
966
1022
1022
1022
1023
1023
1022
1022
970
896
861
827
784
768
739
756
760
772
791
811
848
834
734
694
629
482
271
69
0
0
0
0
0
0
39
236
364
421
400
267
90
0
0
0
0
0
0
0
0
152
451
779
1022
1022
1022
1023
1022
1022
1023
1023
1022
1022
1022
1022
1022
1023
1022
1022
1023
1023
1023
1022
1022
1022
1022
1022
1022
1022
1022
1022
1023
1022
1022
1022
1022
1011
1010
1008
980
915
825
684
550
455
362
284
243
188
159
176
211
259
313
371
369
309
245
239
227
190
159
87
33
44
108
167
209
313
406
511
620
721
798
798
752
662
547
443
322
270
262
240
235
251
261
330
427
531
632
705
732
759
771
766
771
715
608
499
484
547
615
716
784
851
902
929
939
902
844
782
723
656
668
707
761
771
688
567
426
236
57
0
0
0
0
62
120
127
94
46
10
53
146
246
301
307
239
150
97
56
0
0
0
0
56
145
201
258
272
229
149
114
128
146
174
229
239
276
364
460
499
581
702
795
858
967
987
978
974
967
956
916
871
793
701
557
372
227
194
207
287
384
480
566
624
693
797
828
824
757
642
541
475
431
389
336
264
229
256
335
395
447
553
654
713
891
1022
1022
1022
1023
1023
1022
1022
1022
1022
1022
1022
1022
935
961
1021
1022
1022
1022
1023
1023
1022
1023
1022
1022
1022
1022
1022
1022
1023
1022
883
735
658
631
613
652
719
781
848
987
1022
1022
1022
1022
1023
1022
1022
1022
1023
1023
1022
1022
1022
1004
1022
1022
1022
1023
1023
1023
1022
1022
1022
1022
1023
1022
1022
1023
1022
1022
1022
1022
986
970
1018
1022
1022
1023
1023
1023
1022
1022
1022
1023
1022
1022
1022
1023
1023
1023
1022
1022
1022
1023
1022
1022
1022
1022
1022
1023
1022
1022
1022
1023
1022
1022
1023
1022
1022
1022
1022
1022
1023
1023
1023
1022
1022
1023
1022
1022
1022
1022
1022
1022
1023
1022
1022
1023
1023
1023
1022
1022
1023
1022
1023
1022
1022
1022
1022
1023
1022
1022
1022
1023
1023
1022
1022
1022
1022
1023
1022
1022
1022
1023
1023
1022
1022
1022
1022
1023
1022
1022
1022
1022
1023
1022
1022
1022
1022
1022
1022
1022
1022
1022
1023
1022
1022
1022
1022
1022
1022
1023
1022
1022
1023
1022
1022
1022
1022
1023
1022
1022
1022
1023
1022
1022
1022
1022
1023
1022
1022
1022
1022
1022
1023
1022
1022
1023
1023
1023
1005
812
697
701
825
1014
1022
1023
1023
1023
1022
1022
1022
1022
1023
1022
1023
1022
1023
1022
1022
886
788
775
837
929
1022
1022
1023
1023
1022
1022
1023
1022
1023
1022
888
662
459
254
47
0
0
0
0
87
283
468
643
892
1022
1022
1022
1023
1022
872
595
300
32
0
0
0
0
0
0
0
0
0
47
290
520
659
682
597
448
212
0
0
0
0
0
0
0
0
0
0
0
0
0
0
0
67
114
45
0
0
0
0
0
0
0
0
0
0
0
0
0
0
0
0
0
0
21
0
0
0
0
0
0
0
0
0
0
0
0
0
0
0
0
0
0
0
0
0
0
0
0
0
0
0
0
0
0
0
0
0
0
0
0
0
0
0
0
0
0
0
0
0
0
0
0
0
0
0
0
0
0
0
0
0
0
0
7
0
0
0
0
0
0
0
0
0
0
0
0
0
0
0
0
0
0
0
0
0
0
0
0
0
0
0
0
0
0
0
0
0
0
0
0
0
0
0
0
0
0
0
0
0
0
0
0
0
0
0
0
0
0
0
0
0
0
0
0
0
0
0
0
0
0
0
0
0
0
0
0
0
0
0
0
0
0
0
0
0
0
0
0
0
0
0
0
0
0
0
0
0
0
0
0
0
0
0
0
0
0
0
0
0
0
0
0
0
0
0
0
0
0
0
0
0
0
0
0
0
0
0
0
0
0
0
0
0
0
0
0
0
0
0
0
0
0
0
0
0
0
0
0
0
0
0
0
0
0
0
0
0
0
0
0
0
0
0
0
0
0
0
0
0
0
0
0
0
0
0
0
0
0
0
0
0
57
251
341
318
222
26
0
0
0
0
0
0
0
0
0
0
0
0
0
199
462
646
726
688
572
361
124
0
0
0
0
0
0
0
0
0
0
0
131
426
698
902
997
976
874
682
465
233
30
0
0
0
0
0
0
0
29
242
444
700
940
1022
1022
1022
898
663
388
109
0
0
0
0
0
0
0
0
0
0
147
435
706
908
1008
989
900
711
497
271
62
0
0
0
0
0
0
0
111
358
600
892
1022
1022
1022
1022
1022
944
661
369
102
0
0
0
0
0
0
0
0
0
155
420
668
844
902
844
713
483
223
0
0
0
0
0
0
0
0
0
0
0
0
275
563
765
857
841
760
569
335
81
0
0
0
0
0
0
0
0
0
0
0
247
513
706
808
768
678
479
252
38
0
0
0
0
0
0
0
0
0
0
143
383
635
833
914
892
798
595
342
81
0
0
0
0
0
0
0
0
0
75
307
598
894
1022
1022
1022
1022
880
659
405
164
0
0
0
0
0
0
0
0
27
272
582
890
1022
1022
1023
1023
1022
882
642
402
185
0
0
0
0
0
0
103
299
500
769
1018
1022
1022
1022
1022
971
725
454
218
0
0
0
0
0
0
0
0
208
409
657
898
1022
1022
1022
931
727
493
260
54
0
0
0
0
0
0
0
0
94
269
496
704
882
992
988
941
774
551
307
85
0
0
0
0
0
0
0
0
0
209
479
711
895
971
925
841
644
411
185
10
0
0
0
0
0
0
0
0
0
151
445
739
954
1022
1015
919
756
557
317
115
0
0
0
0
0
0
0
0
211
421
700
993
1022
1022
1022
1023
1017
769
506
292
96
0
0
0
0
0
31
243
475
708
982
1022
1022
1023
1023
1023
1022
1022
817
590
373
152
0
0
0
0
139
350
582
800
1021
1022
1022
1023
1022
1023
1022
959
728
504
298
91
0
0
0
0
216
442
669
906
1022
1022
1023
1022
1023
1022
1022
1022
1022
1022
980
805
678
646
739
894
1022
1022
1022
1023
1023
1022
1023
1022
1022
1022
1022
1022
1022
1022
1023
1022
1022
1022
1023
1023
1022
1022
1023
1022
1023
1022
1022
1022
1022
1023
1022
1022
1022
1022
1022
1022
901
796
802
883
1022
1022
1022
1022
1023
1022
1023
1022
1022
1022
1022
1022
1022
1022
1022
857
633
503
476
511
621
796
983
1022
1023
1022
1022
1022
1022
1022
1022
1022
1022
956
755
541
353
240
245
310
433
590
758
949
1022
1022
1022
1022
1023
1023
1022
961
660
399
151
0
0
0
0
0
0
121
315
518
802
1022
1022
1022
1022
1022
1022
963
673
433
193
0
0
0
0
0
0
219
418
592
844
1022
1022
1022
1022
1022
1022
910
636
419
216
27
0
0
0
0
0
172
394
608
835
1022
1022
1022
1022
1022
855
582
289
12
0
0
0
0
0
0
0
0
31
242
496
768
981
1022
1022
975
796
557
319
105
0
0
0
0
0
0
0
0
188
419
683
961
1022
1022
1022
1022
1021
784
543
327
126
0
0
0
0
0
7
242
472
686
939
1022
1022
1023
1022
1023
1022
991
727
482
270
49
0
0
0
0
83
320
550
770
1012
1022
1022
1022
1023
1023
1022
1022
880
671
480
281
97
7
24
130
310
532
774
1002
1023
1022
1022
1023
1022
1023
1022
1022
857
589
356
113
0
0
0
0
39
263
497
724
987
1022
1022
1023
1023
1023
1022
1022
797
508
231
0
0
0
0
0
0
110
304
499
715
942
1022
1022
1023
1022
840
580
303
39
0
0
0
0
0
0
0
0
0
0
0
204
401
451
375
199
0
0
0
0
0
0
0
0
0
0
0
0
0
0
0
0
0
0
0
0
0
0
0
0
0
0
0
0
0
0
0
0
0
0
0
119
785
1022
1022
1023
1022
1022
1023
1023
1023
1022
1022
1022
1022
1023
1022
1022
1022
1022
1023
1022
1022
1022
1023
1023
1022
1022
1023
1022
1023
1022
1022
1022
1022
1023
1022
1022
1022
1023
1023
1022
1022
1022
1022
1022
1022
1022
1022
1022
1023
1022
1022
1022
1022
1023
1022
1022
1022
1022
1023
1022
1022
1022
1022
1023
1022
1022
1022
1022
1023
1022
1022
1022
1022
1023
1022
1023
1022
1022
1023
1022
1022
1022
1022
1022
1022
1022
1022
1022
1023
1022
1022
1022
1022
1023
1022
1023
1022
1022
1022
1022
1022
1022
1022
1022
1022
1022
1022
1022
986
672
365
137
65
104
275
489
709
947
1022
1022
1022
1022
1022
1023
1022
1022
1022
1022
1022
851
622
450
391
396
457
615
760
878
1016
1022
1023
1022
1022
1023
1022
1022
813
504
250
0
0
0
0
0
0
0
0
0
0
0
0
0
0
0
0
0
0
0
0
0
0
0
0
0
0
0
0
0
0
0
0
0
0
0
0
0
0
0
0
0
0
0
0
0
0
0
0
0
0
0
0
0
0
0
0
0
0
0
0
0
0
0
0
0
0
0
0
0
0
0
0
0
0
0
0
0
0
0
0
0
0
0
0
0
0
0
0
0
0
0
0
0
0
0
0
0
0
0
0
0
0
0
0
0
0
0
0
0
0
0
234
404
461
432
320
144
0
0
0
0
0
0
0
0
0
0
0
0
0
151
329
403
364
203
0
0
0
0
0
0
0
0
0
0
0
0
0
0
0
0
0
0
0
0
0
0
0
0
0
0
0
0
0
0
0
0
0
0
0
0
0
0
0
0
0
0
0
0
0
0
0
0
0
0
0
0
0
0
0
0
0
0
0
0
0
0
0
0
0
0
0
0
0
0
0
0
0
0
0
0
0
0
0
13
0
0
0
0
0
0
0
0
0
0
0
0
0
13
365
768
1022
1022
1022
1023
1022
1022
942
734
548
381
237
176
228
367
532
757
974
1022
1022
1022
1022
1023
1023
1023
1022
1021
670
319
12
0
0
0
0
0
0
52
382
706
1022
1022
1022
1022
1022
1023
1022
1022
1022
1022
1023
1022
1022
1022
1022
1022
1022
1022
1022
1022
1023
1022
1022
1022
1022
1023
1022
1022
1022
1022
1022
1022
1022
1008
991
1022
1022
1022
1022
1022
1022
1022
1022
1023
1022
1023
1022
1022
1022
1022
1023
1022
945
819
791
871
1008
1022
1023
1023
1023
1022
1022
1022
1022
1023
1022
1022
1023
1023
1023
1022
1022
898
860
952
1022
1022
1023
1023
1023
1022
1022
1023
1022
1023
1022
1022
1022
1022
1023
1022
1022
1022
1022
1022
1022
1022
1023
1023
1023
1022
1022
1022
1022
1022
1022
1022
1023
1023
1022
848
616
445
396
461
581
770
977
1022
1023
1022
1022
1022
1022
1023
1022
1022
903
611
391
191
0
0
0
0
0
0
92
257
418
607
777
862
872
759
591
340
59
0
0
0
0
0
0
0
0
0
0
0
0
262
551
739
831
783
692
541
375
255
176
81
0
0
0
134
321
555
812
1022
1022
1022
1022
1022
1022
1023
1022
1022
1023
1022
1023
1022
1022
938
990
1022
1022
1022
1022
1022
1023
1022
1022
1023
1023
1023
1022
1022
1022
1023
1022
736
484
301
195
204
265
415
577
771
930
1022
1022
1022
1023
1023
1022
735
403
76
0
0
0
0
0
0
0
0
0
101
305
582
837
998
1022
1022
949
771
574
337
33
0
0
0
0
0
0
0
0
0
94
412
640
741
728
630
472
207
0
0
0
0
0
0
0
0
0
0
0
0
0
120
306
428
496
483
396
149
0
0
0
0
0
0
0
0
0
0
0
0
0
0
0
0
0
0
0
0
0
0
0
0
0
0
0
0
0
0
0
0
0
0
0
96
199
178
53
0
0
0
0
0
0
0
0
0
0
0
0
0
0
278
606
839
952
941
839
655
440
212
24
0
0
0
0
0
0
111
386
666
937
1022
1023
1022
1022
1023
1022
1022
1022
1022
913
755
573
448
423
494
610
847
1022
1022
1023
1022
1023
1022
1022
1023
1022
1022
1022
1022
1023
1022
1022
871
838
903
1021
1022
1022
1022
1023
1022
1022
1022
1022
1023
1022
1022
1022
1022
1023
1022
981
801
722
744
833
1011
1022
1022
1023
1022
1022
1022
1022
1022
1022
1022
1022
1022
833
569
310
103
22
53
147
316
477
673
869
1022
1022
1023
1023
1022
1022
1022
739
421
159
0
0
0
0
0
0
0
0
144
376
668
941
1022
1022
1022
963
716
435
161
0
0
0
0
0
0
0
0
0
170
410
707
987
1022
1022
1022
1022
869
596
335
108
0
0
0
0
0
0
0
199
466
719
1015
1022
1022
1023
1022
1022
1022
976
722
504
306
99
0
0
0
157
393
646
921
1022
1022
1022
1022
1023
1022
1022
1022
1023
1022
1022
963
751
591
535
595
736
950
1022
1022
1022
1022
1022
1022
1022
1022
1022
1022
1023
1022
1023
1022
1022
894
818
846
951
1022
1022
1023
1022
1022
1022
1022
1023
1023
1022
1022
1022
1023
1023
1022
895
670
568
636
787
1022
1022
1022
1022
1022
1022
1022
1022
1022
1022
1022
1022
1022
1022
934
707
532
479
515
602
780
977
1022
1022
1022
1022
1022
1022
1023
1022
1022
1023
1022
910
690
459
286
216
243
339
529
754
991
1022
1022
1022
1022
1022
1022
1022
1022
1022
931
682
442
183
0
0
0
0
108
360
631
879
1022
1022
1022
1023
1022
1022
1022
1022
727
472
230
7
0
0
0
0
124
332
561
809
1022
1022
1022
1022
1022
1023
1022
797
512
250
0
0
0
0
0
0
0
0
0
0
153
372
542
632
600
495
294
58
0
0
0
0
0
0
0
0
0
0
0
0
182
505
768
906
908
861
719
488
280
102
0
0
0
0
0
0
48
346
648
921
1022
1022
1022
1022
1023
1022
1022
1022
914
688
472
270
148
150
215
296
455
624
769
907
1022
1022
1022
1022
1023
1022
990
720
467
258
44
0
0
0
0
0
0
0
0
166
463
711
861
905
847
746
591
403
199
0
0
0
0
0
0
0
0
148
439
724
1022
1022
1022
1022
1023
1022
1022
1022
812
535
228
0
0
0
0
0
0
0
199
378
582
832
1012
1022
1022
1003
835
640
423
244
94
0
0
0
0
0
0
102
325
504
726
965
1022
1022
1022
993
803
555
296
76
0
0
0
0
0
0
0
0
0
0
97
305
452
535
541
437
231
0
0
0
0
0
0
0
0
0
0
0
0
0
0
0
153
251
227
134
0
0
0
0
0
0
0
0
0
0
0
0
0
0
0
4
155
240
251
216
77
0
0
0
0
0
0
0
0
0
0
0
0
0
0
192
394
499
480
341
143
0
0
0
0
0
0
0
0
0
0
0
0
0
0
0
0
0
0
0
0
0
0
0
0
0
0
0
0
0
0
0
0
0
0
0
0
0
0
0
0
0
0
0
0
0
0
0
0
0
0
0
0
0
0
0
0
0
0
0
0
0
0
0
0
0
0
0
0
0
0
0
0
0
0
47
402
617
692
695
551
299
8
0
0
0
0
0
0
0
0
0
0
182
558
1009
1022
1022
1022
1022
1022
1022
1022
1023
1022
1022
1022
1022
1022
1022
1022
1022
1023
1022
1022
1022
1022
1022
1022
1022
1022
1023
1023
1022
1022
1023
1022
1022
952
851
808
904
1022
1022
1022
1022
1022
1023
1023
1022
1022
1022
1022
1022
1022
1022
1022
1022
1022
1022
1022
1023
1023
1022
1022
1022
1023
1022
1023
1022
1022
1022
1022
1022
1022
1022
1022
1022
1022
1022
1022
1023
1023
1022
1022
1022
1022
1023
1023
1022
1023
1022
1022
1023
903
659
455
347
376
477
657
894
1022
1023
1022
1022
1022
1022
1023
1022
1022
1022
1022
1023
1022
888
688
579
573
644
800
1016
1022
1023
1022
1022
1022
1022
1023
1022
1022
1022
1022
1023
1022
1022
914
823
834
926
1022
1022
1022
1022
1022
1023
1022
1022
1022
1023
1022
1022
1022
1023
1022
903
675
540
501
541
663
835
1014
1022
1022
1022
1023
1023
1022
1022
1022
1022
718
387
64
0
0
0
0
0
0
100
413
720
1022
1023
1022
1022
1022
1022
1022
1022
1022
1022
912
684
458
281
240
276
375
536
679
788
915
1022
1022
1022
1022
1022
1022
818
577
348
132
0
0
0
0
0
0
65
256
435
680
914
1019
1003
842
869
1022
1023
1022
1022
1022
1022
1022
1022
1023
1022
1022
1022
1022
1022
1022
1022
1022
1022
1022
1022
1022
1023
1023
1022
1022
1022
1022
1023
1023
1022
1023
1022
1022
1023
1022
1022
1023
1023
1022
1022
1022
1022
1022
1023
1022
1022
1022
1022
1023
1022
1022
1022
1022
1022
1022
1022
1022
1023
1022
1022
1022
1022
1023
1022
1023
1022
1023
1022
1022
1022
1021
1006
984
1022
1022
1022
1022
1023
1022
1022
921
593
223
0
0
0
0
0
0
0
0
0
0
0
0
0
0
0
0
0
0
0
0
0
0
0
0
0
0
0
0
0
0
0
0
0
0
0
0
0
0
0
0
0
0
0
0
0
0
0
0
0
0
0
0
0
0
0
0
0
0
0
0
0
0
0
0
0
0
0
0
0
0
0
0
0
0
0
0
0
0
0
0
0
0
0
0
0
0
0
0
0
0
0
0
0
240
404
447
386
262
50
0
0
0
0
0
0
0
0
0
0
0
0
0
0
0
0
0
0
0
0
0
0
0
0
0
0
0
0
0
0
0
0
0
0
0
0
0
0
0
0
0
0
0
0
0
0
0
0
0
0
0
0
0
0
0
0
0
0
0
0
0
0
0
0
0
0
0
0
0
0
0
0
0
0
0
0
0
0
0
0
0
0
0
0
0
0
0
0
0
0
0
0
0
5
292
477
550
536
438
270
65
0
0
0
0
0
0
0
0
0
0
200
437
711
943
1022
1022
1022
979
769
539
309
103
0
0
0
0
0
0
0
188
401
617
862
1022
1022
1022
1022
1015
798
543
312
85
0
0
0
0
0
0
0
13
222
442
707
935
1022
1022
1022
953
755
536
324
128
0
0
0
0
0
0
42
257
472
694
946
1022
1022
1022
1022
1022
929
701
475
271
68
0
0
0
0
0
123
346
570
805
1022
1022
1023
1022
1022
1022
1022
903
689
505
329
165
73
79
157
308
519
753
958
1022
1022
1022
1022
1023
1022
1022
1022
1022
1022
841
642
432
306
262
312
430
597
794
991
1022
1022
1022
1022
1023
1023
1022
1022
1022
930
710
501
310
191
155
216
333
525
723
934
1022
1022
1022
1022
1022
1022
1022
1022
1022
864
631
400
179
26
0
0
78
235
414
590
779
1003
1022
1022
1022
1023
1022
952
716
476
247
29
0
0
0
0
0
0
153
355
559
808
1021
1022
1023
1022
1022
816
590
360
153
0
0
0
0
0
0
0
204
398
577
819
1022
1022
1023
1022
1022
985
779
556
337
127
0
0
0
0
0
199
398
589
778
1011
1022
1023
1022
1022
1022
1022
886
664
459
271
89
0
0
21
145
307
478
667
856
1022
1022
1023
1022
1022
1022
934
703
464
248
43
0
0
0
0
0
0
198
402
601
846
1022
1022
1023
1022
1022
826
593
357
145
0
0
0
0
0
0
0
142
355
559
808
1018
1022
1023
1022
991
787
554
327
129
0
0
0
0
0
0
0
39
234
429
674
902
1022
1022
1022
929
742
527
309
105
0
0
0
0
0
0
0
205
429
655
914
1022
1022
1023
1022
1022
1022
831
622
425
229
44
0
0
0
0
179
372
568
770
1012
1022
1022
1023
1022
1022
1004
754
512
293
80
0
0
0
0
0
0
120
313
507
739
958
1022
1022
1022
999
816
591
376
161
0
0
0
0
0
0
0
24
226
431
693
934
1022
1022
1022
1021
834
626
406
208
22
0
0
0
0
0
0
169
376
580
820
1022
1022
1023
1022
1022
879
660
440
233
42
0
0
0
0
0
10
219
426
630
892
1022
1022
1022
1022
1022
967
749
504
291
107
0
0
0
0
0
85
273
471
678
931
1022
1022
1022
1022
1022
1018
778
538
314
114
0
0
0
0
0
0
180
375
567
803
1018
1022
1022
1022
1022
848
625
395
184
0
0
0
0
0
0
0
131
332
535
787
1013
1022
1022
1022
1022
860
630
394
183
0
0
0
0
0
0
0
102
316
523
784
1020
1022
1023
1022
1022
989
786
590
408
233
69
0
0
2
153
359
583
812
1022
1022
1023
1022
1023
1022
1022
1022
1022
1023
945
755
556
432
387
438
539
721
926
1022
1022
1022
1023
1022
1022
1023
1022
1022
1022
1022
1022
968
780
644
587
620
720
878
1022
1022
1023
1022
1022
1022
1022
1023
1022
1022
1022
1023
1022
828
605
446
371
380
455
594
768
951
1022
1022
1022
1023
1022
1023
1022
1022
1022
948
736
528
327
180
111
135
224
377
551
742
924
1022
1022
1023
1022
1023
1022
1022
931
690
465
254
49
0
0
0
0
73
251
441
625
862
1022
1022
1022
1023
1022
952
735
513
312
113
0
0
0
0
0
77
277
481
675
933
1022
1022
1022
1023
1022
1022
849
630
433
237
49
0
0
0
0
140
346
551
751
995
1022
1022
1022
1022
1022
1022
912
687
481
279
77
0
0
0
0
131
321
513
696
920
1022
1022
1023
1022
1022
1022
801
560
339
142
0
0
0
0
0
0
183
381
587
833
1022
1022
1023
1023
1022
912
684
444
239
37
0
0
0
0
0
0
105
308
504
745
969
1022
1022
1022
1022
860
623
384
170
0
0
0
0
0
0
0
0
203
409
660
902
1022
1022
1022
1021
827
618
390
181
0
0
0
0
0
0
0
71
266
457
705
944
1022
1022
1022
1022
881
659
440
238
27
0
0
0
0
0
0
94
300
496
743
979
1022
1022
1022
1022
885
667
425
204
3
0
0
0
0
0
0
2
213
398
634
863
1021
1022
1022
953
768
539
296
73
0
0
0
0
0
0
0
0
60
258
503
730
907
982
950
844
668
455
224
8
0
0
0
0
0
0
0
0
5
216
462
699
878
953
929
847
660
467
254
57
0
0
0
0
0
0
0
18
238
441
694
934
1022
1022
1023
1022
903
696
472
262
72
0
0
0
0
0
0
120
321
519
763
994
1022
1022
1022
1022
951
741
506
296
91
0
0
0
0
0
0
118
312
504
753
992
1022
1022
1022
1022
960
750
516
309
114
0
0
0
0
0
0
162
362
553
792
1016
1022
1022
1022
1022
951
734
495
281
75
0
0
0
0
0
0
98
297
495
743
973
1022
1022
1022
1022
955
755
531
327
133
0
0
0
0
0
0
189
404
611
861
1022
1022
1022
1023
1022
1022
894
664
454
255
50
0
0
0
0
62
255
457
651
884
1022
1022
1023
1022
1022
1022
821
573
353
149
0
0
0
0
0
0
144
347
541
780
1011
1022
1022
1022
1022
980
771
543
332
130
0
0
0
0
0
0
147
353
554
789
1019
1023
1023
1022
1022
1021
800
568
355
149
0
0
0
0
0
0
152
346
543
790
1020
1022
1022
1023
1022
1022
820
591
384
187
0
0
0
0
0
11
208
409
601
839
1022
1022
1023
1023
1022
1022
859
639
435
236
35
0
0
0
0
54
244
441
636
875
1022
1022
1022
1023
1022
1022
908
669
466
269
75
0
0
0
0
95
290
496
690
928
1022
1022
1022
1023
1022
1022
967
743
539
335
129
0
0
0
0
136
326
531
727
969
1022
1022
1022
1022
1022
1022
1022
840
644
450
256
99
23
31
105
247
414
599
778
992
1022
1022
1023
1022
1022
1022
908
665
439
222
13
0
0
0
0
0
137
329
518
755
1003
1022
1022
1022
1022
1015
787
550
327
120
0
0
0
0
0
0
45
242
429
655
889
1022
1022
1022
1022
891
684
452
245
51
0
0
0
0
0
0
79
286
488
737
993
1022
1022
1022
1022
1022
870
643
437
245
54
0
0
0
0
28
205
399
589
814
1021
1023
1023
1023
1022
1022
854
622
407
210
23
0
0
0
0
29
219
421
620
861
1022
1022
1022
1022
1022
1022
935
700
483
285
84
0
0
0
0
50
227
416
600
825
1022
1022
1023
1023
1022
1022
888
658
445
251
37
0
0
0
0
24
214
413
604
836
1022
1022
1022
1023
1022
1022
921
699
498
297
99
0
0
0
0
65
247
440
622
841
1022
1022
1022
1022
1022
1022
813
579
371
186
0
0
0
0
0
0
143
343
527
751
977
1022
1022
1023
1022
1018
801
574
368
159
0
0
0
0
0
0
93
287
481
707
948
1022
1022
1023
1022
959
748
514
300
102
0
0
0
0
0
0
71
278
472
706
955
1022
1022
1022
1022
1016
792
558
339
138
0
0
0
0
0
0
95
296
491
719
969
1022
1022
1022
1022
1022
833
599
390
195
0
0
0
0
0
0
103
291
476
699
939
1022
1022
1022
1022
988
779
550
334
144
0
0
0
0
0
0
98
299
488
717
951
1022
1022
1022
1022
988
783
556
341
139
0
0
0
0
0
0
81
281
480
708
956
1022
1022
1023
1022
971
754
512
281
67
0
0
0
0
0
0
0
216
415
660
909
1022
1022
1022
1022
1022
841
629
422
222
8
0
0
0
0
0
104
285
467
686
924
1022
1022
1023
1022
953
735
494
271
67
0
0
0
0
0
0
0
109
296
516
753
939
1022
1022
952
797
585
351
137
0
0
0
0
0
0
0
0
30
224
456
696
894
1002
996
912
748
534
292
71
0
0
0
0
0
0
0
0
0
179
428
683
899
1014
1022
974
840
655
439
240
55
0
0
0
0
0
0
39
250
455
694
949
1022
1022
1023
1022
1022
864
645
437
242
53
0
0
0
0
47
253
473
688
937
1022
1022
1022
1023
1023
1022
1022
1021
814
628
445
280
187
182
254
385
567
765
963
1022
1022
1022
1022
1023
1022
1022
1022
999
775
574
383
217
125
126
221
388
585
809
1015
1022
1022
1022
1022
1023
1022
1022
1022
1022
1022
811
611
451
359
352
429
577
762
977
1022
1022
1022
1022
1022
1022
1022
1022
1023
1022
1022
977
778
608
507
492
549
671
848
1020
1022
1022
1022
1022
1023
1022
1022
1022
1022
1022
961
738
516
315
189
159
206
315
476
638
799
978
1022
1022
1022
1023
1022
1022
913
652
396
158
0
0
0
0
0
0
0
47
222
419
647
818
921
918
831
667
467
225
0
0
0
0
0
0
0
0
0
0
24
236
487
691
806
813
737
589
380
144
0
0
0
0
0
0
0
0
0
0
39
287
560
790
936
969
920
794
606
402
209
34
0
0
0
0
0
0
94
324
543
792
1022
1022
1022
1023
1023
1022
1022
905
691
499
309
142
42
40
115
254
443
641
840
1022
1022
1022
1022
1022
1022
1022
1022
976
743
533
331
146
31
6
64
186
359
550
744
959
1022
1022
1022
1022
1022
1022
1022
834
603
373
161
0
0
0
0
0
94
267
429
627
853
1022
1022
1022
1022
877
647
390
156
0
0
0
0
0
0
0
0
0
100
324
576
800
924
935
861
712
493
255
29
0
0
0
0
0
0
0
0
0
40
265
523
743
878
902
852
736
555
341
132
0
0
0
0
0
0
0
0
180
396
645
919
1022
1022
1022
1022
1022
975
752
531
336
136
0
0
0
0
0
174
374
579
789
1022
1022
1022
1022
1022
1022
1022
804
584
382
194
25
0
0
0
115
312
513
711
925
1022
1022
1023
1023
1022
1022
1022
841
608
383
163
0
0
0
0
0
133
314
499
719
975
1022
1022
1022
1022
1022
898
667
447
237
31
0
0
0
0
0
50
251
448
667
922
1022
1022
1022
1022
1022
858
625
399
190
0
0
0
0
0
0
77
285
496
710
974
1023
1023
1023
1022
1022
1007
771
551
362
179
9
0
0
0
98
286
496
716
959
1022
1022
1022
1023
1022
1022
1022
1018
775
572
365
176
49
11
73
195
377
575
779
1003
1022
1022
1022
1023
1022
1022
1022
927
686
454
224
15
0
0
0
0
90
271
456
671
927
1022
1023
1023
1022
1022
924
696
470
266
57
0
0
0
0
0
20
209
384
595
839
1022
1022
1022
1022
989
778
544
312
100
0
0
0
0
0
0
0
62
257
466
721
945
1022
1023
1022
943
751
531
309
