465
470
479
491
499
501
498
493
499
510
518
529
540
545
538
531
528
527
516
499
479
471
471
475
479
484
492
502
512
523
529
536
535
531
526
519
512
504
496
492
492
495
504
517
531
540
547
549
548
550
551
555
549
548
543
537
536
535
529
521
514
515
515
515
512
506
502
502
507
517
530
544
558
570
574
569
558
542
523
499
481
475
472
480
492
501
510
520
531
537
536
534
533
531
528
522
519
515
512
506
495
487
480
479
477
477
479
479
482
488
495
501
505
505
501
498
495
494
489
484
482
487
496
503
508
515
516
517
514
514
515
517
519
521
521
519
517
515
511
503
491
481
477
474
470
469
472
477
485
492
495
499
500
498
489
479
474
469
466
458
452
451
450
452
452
449
447
449
453
458
461
467
472
477
483
484
483
476
470
461
452
447
447
450
454
456
461
466
473
484
493
508
518
529
533
531
528
522
515
506
499
502
508
515
521
527
533
537
542
546
550
557
561
563
563
561
560
556
547
532
517
511
503
499
498
500
505
511
521
531
538
547
550
550
544
535
521
507
492
478
466
460
460
463
467
468
471
476
487
502
514
521
521
518
510
495
483
475
468
464
460
459
462
463
466
475
481
489
497
503
507
511
513
515
515
514
512
507
502
493
481
476
480
486
496
504
511
518
526
534
539
546
552
556
556
552
550
546
540
533
527
523
524
525
527
527
528
532
539
548
557
566
571
575
575
572
566
560
551
542
533
529
535
542
545
547
552
555
558
563
562
562
563
565
566
563
560
558
553
543
533
528
527
527
527
524
525
522
524
524
521
524
521
518
513
508
503
499
490
483
476
470
478
487
494
498
504
507
512
514
514
510
508
504
499
493
485
479
473
468
465
466
468
478
487
495
504
512
524
534
539
546
551
550
547
543
536
530
519
505
492
488
488
492
493
491
496
499
504
504
506
513
519
524
525
520
514
507
496
487
477
472
472
472
474
473
475
479
482
486
488
496
499
499
499
494
490
485
477
468
463
461
462
466
468
471
478
478
485
490
496
499
501
501
499
495
489
483
472
464
458
455
455
456
461
468
473
479
487
496
502
508
512
511
512
515
511
511
503
494
489
487
483
486
487
492
492
493
498
504
507
509
511
515
514
511
508
507
504
498
494
488
487
490
495
500
505
510
514
519
521
529
531
534
534
530
527
521
514
505
498
495
492
495
498
499
504
507
514
523
529
531
539
543
543
540
535
528
521
515
513
515
520
524
527
533
535
540
548
557
561
568
572
576
574
568
563
555
546
536
527
525
532
534
532
532
536
543
548
552
553
557
560
561
560
554
544
536
529
520
510
507
506
509
510
509
512
518
527
537
542
547
549
549
546
536
529
521
511
499
487
478
475
475
472
467
464
465
471
475
474
476
478
479
478
473
465
457
448
436
425
420
420
424
430
433
442
447
456
462
464
470
476
480
481
480
478
471
465
457
448
445
445
450
455
458
463
467
472
481
486
493
497
502
504
499
496
491
484
477
467
462
464
467
468
472
475
479
485
491
494
499
503
504
504
501
499
495
489
481
472
466
467
472
476
480
487
496
508
517
525
533
543
551
551
547
542
532
518
507
499
499
508
517
518
513
510
510
518
524
526
533
531
527
517
504
494
479
466
453
440
435
431
433
436
439
447
451
460
469
475
480
483
485
485
481
480
477
470
461
456
455
459
467
475
479
484
491
497
502
504
508
508
507
504
499
495
489
481
472
466
463
464
469
475
479
485
487
494
502
505
515
517
518
517
513
508
502
495
487
481
482
484
488
493
497
502
508
518
528
537
546
554
560
562
559
557
550
542
531
516
508
505
505
505
503
504
508
514
523
529
539
547
550
551
548
543
535
526
516
508
504
503
501
497
492
490
491
494
497
496
494
493
493
490
486
480
474
466
458
448
445
446
448
451
454
461
465
472
478
480
481
481
481
478
475
470
466
460
454
448
449
451
456
458
458
460
463
471
480
487
492
498
500
500
495
491
486
479
470
463
463
466
474
482
488
498
509
518
526
529
533
536
539
539
536
533
530
522
512
504
500
498
500
505
509
510
512
514
517
516
519
521
524
526
521
517
510
499
488
479
476
476
478
481
484
486
487
492
496
502
506
512
518
521
524
521
519
511
497
483
475
472
474
478
482
491
499
505
508
510
506
505
505
504
500
499
500
496
488
479
476
477
481
487
494
502
510
518
523
526
525
527
527
525
521
518
511
499
491
487
484
488
494
499
499
503
507
512
518
526
530
534
535
531
526
521
515
507
499
496
492
494
496
497
498
501
504
508
515
518
522
526
527
527
525
522
516
510
502
491
484
483
484
486
485
487
489
492
496
497
499
499
503
505
500
496
493
488
483
478
474
476
480
483
484
487
491
498
504
508
514
520
525
527
525
520
515
509
500
493
493
493
499
503
505
513
518
524
530
535
537
540
540
539
537
529
525
516
507
497
492
492
492
492
493
495
494
496
495
494
496
498
498
496
494
491
483
475
467
463
463
469
478
484
488
494
494
500
502
500
499
496
493
487
478
469
460
451
444
438
440
442
449
457
463
476
483
491
492
489
490
491
492
493
492
487
477
466
458
453
451
456
462
469
475
481
489
496
500
506
507
512
516
515
511
507
504
500
497
496
492
495
500
501
499
500
507
515
527
536
542
541
540
535
526
517
508
500
491
483
480
482
489
494
496
496
495
496
500
500
505
512
516
522
526
521
513
505
499
493
496
500
498
489
477
465
454
453
456
464
487
504
517
524
523
515
499
485
473
472
482
502
527
551
569
581
584
584
578
573
569
573
579
585
582
579
571
558
542
527
518
512
506
497
489
482
476
468
464
460
460
458
456
451
446
443
440
438
439
444
452
462
473
482
486
491
497
503
508
509
511
511
508
504
501
494
487
480
468
457
453
451
453
455
459
464
469
477
483
491
496
501
504
504
500
493
485
475
463
452
449
450
452
452
454
457
459
467
473
480
489
497
504
510
512
514
515
512
510
508
514
519
525
531
537
543
550
558
565
569
574
578
576
573
568
563
557
549
539
532
523
523
522
521
521
521
522
525
527
527
530
528
529
528
522
517
512
503
492
482
479
480
480
482
484
483
487
492
496
499
501
505
504
504
501
499
494
486
479
472
468
470
474
477
479
483
488
494
497
499
502
506
510
510
509
506
507
504
501
494
495
498
504
504
504
506
510
513
517
519
522
522
523
523
521
519
515
511
501
494
493
497
503
508
506
509
514
519
521
525
529
531
534
533
527
521
517
510
499
489
485
486
489
491
491
489
492
496
503
511
518
525
529
532
535
530
526
522
516
511
507
510
513
515
513
513
510
513
516
516
521
519
519
518
510
504
495
488
478
470
463
464
467
467
468
467
470
473
479
481
487
492
496
498
496
496
494
493
492
489
490
494
499
505
507
512
516
521
526
534
538
543
543
541
541
537
534
529
520
508
498
494
494
496
498
500
503
505
508
508
511
509
508
506
501
498
492
481
473
465
462
461
464
466
468
474
478
486
491
492
496
501
504
503
500
496
491
487
482
477
476
476
478
481
482
488
494
501
509
513
519
519
519
518
513
508
500
495
488
479
476
480
485
491
495
501
503
510
512
516
518
521
522
523
521
519
516
508
500
492
491
492
495
496
497
499
503
506
511
513
514
516
515
515
513
509
503
498
491
485
487
490
492
492
492
495
497
499
503
507
510
511
511
510
505
499
494
486
480
475
472
477
479
480
483
487
491
498
504
506
509
509
510
508
509
510
510
508
504
498
499
503
508
512
516
522
524
530
535
536
539
542
540
536
532
524
518
510
502
495
494
497
503
504
502
501
504
509
512
515
519
521
523
521
517
514
511
502
496
490
488
491
494
499
504
507
515
522
526
528
532
534
535
532
529
523
519
513
504
496
494
497
500
503
507
506
509
512
516
518
522
524
523
522
518
514
509
505
499
495
492
495
498
499
500
502
507
513
518
519
520
519
518
516
516
515
513
505
495
487
484
487
491
494
495
496
497
501
504
503
505
507
511
513
511
508
504
500
495
484
483
484
488
491
490
490
491
494
496
498
501
502
499
495
491
485
480
473
466
458
457
460
464
471
472
478
483
492
496
497
498
500
497
494
492
485
481
474
467
463
459
464
469
474
480
486
489
496
502
505
508
510
512
515
513
508
501
492
486
478
479
479
484
488
493
499
505
511
515
519
524
527
529
529
528
527
522
516
510
504
506
510
515
519
518
521
524
527
529
531
534
536
533
528
522
515
508
497
490
483
483
482
486
489
493
496
500
508
516
523
527
531
531
533
536
531
529
523
510
496
487
480
476
471
468
469
468
472
476
479
485
488
493
494
497
499
499
498
495
491
492
495
499
502
500
500
499
504
506
510
508
510
511
509
507
504
501
494
486
480
482
482
485
490
493
496
498
504
513
517
519
519
519
518
514
512
511
509
507
499
493
492
495
497
499
505
511
517
522
525
526
525
525
522
516
514
504
497
490
483
486
492
495
496
496
498
502
505
507
507
511
514
512
512
511
510
507
497
490
486
488
492
497
501
505
509
514
521
525
526
528
531
530
530
526
518
509
499
489
480
478
480
482
484
486
488
489
491
495
498
502
505
505
500
495
491
486
480
474
471
471
474
478
480
479
483
486
493
497
497
503
504
507
507
504
500
496
487
481
474
475
476
481
482
484
489
492
499
503
507
510
510
508
508
506
504
499
493
485
479
480
480
483
485
489
489
495
499
502
504
507
506
506
505
502
498
493
485
478
474
472
475
476
477
477
480
483
489
494
501
504
508
508
504
501
498
492
484
475
468
468
472
476
480
480
483
484
488
493
495
495
496
496
497
496
495
492
487
479
472
472
476
478
479
482
487
490
497
504
508
513
518
521
522
520
516
511
507
500
494
496
498
503
505
510
518
522
527
532
533
529
509
485
486
515
551
565
552
528
505
499
505
515
521
523
530
537
543
547
553
550
544
542
538
537
534
532
524
513
502
497
495
495
497
501
504
508
512
515
515
518
519
518
519
522
516
511
503
493
483
480
482
486
489
492
495
497
501
503
504
508
508
510
508
504
499
495
491
484
479
481
486
494
501
505
508
511
518
522
524
530
530
532
532
530
526
518
512
505
497
499
499
504
508
508
508
508
508
507
507
503
504
503
497
491
486
481
475
470
467
463
467
474
477
477
482
489
502
514
527
531
535
537
536
534
534
532
527
520
514
512
515
520
524
524
529
534
540
544
551
553
553
551
546
538
530
523
513
503
495
494
495
497
496
493
495
496
502
507
512
517
516
513
509
508
510
510
505
496
480
474
469
471
474
480
490
498
506
511
515
519
520
521
522
518
514
507
498
491
487
490
496
501
504
504
509
512
517
522
526
531
534
536
534
530
526
522
515
507
502
498
498
498
499
498
499
502
506
509
511
512
512
512
509
503
499
492
483
478
470
472
477
480
482
484
482
485
487
490
490
491
489
488
486
483
480
475
469
462
456
456
459
463
463
463
466
472
477
481
486
490
494
495
492
490
488
486
479
474
469
470
475
479
481
483
486
489
494
499
501
505
507
507
507
504
501
496
489
483
478
478
481
485
487
487
489
492
496
497
500
503
503
503
501
499
497
495
489
485
481
481
485
490
493
494
496
499
504
508
511
515
518
519
517
513
510
504
498
491
486
489
495
499
502
502
504
505
508
511
512
516
517
516
513
510
507
499
492
487
482
481
484
488
490
492
492
498
506
510
511
512
510
507
506
505
507
504
498
491
484
489
493
496
497
496
496
494
496
497
498
501
503
505
505
502
495
490
484
479
475
475
478
479
480
483
484
486
489
492
493
496
493
492
490
484
483
478
473
470
464
467
467
470
472
474
474
478
482
485
490
496
503
506
504
504
500
494
485
478
471
469
472
473
473
473
478
482
486
492
497
502
504
503
500
497
496
493
486
478
475
473
476
479
480
482
484
487
491
492
496
501
503
504
504
506
500
496
492
488
486
492
497
503
508
510
513
517
522
527
530
532
531
531
530
525
519
513
505
497
491
490
494
497
498
499
503
505
510
512
515
517
516
515
513
510
504
496
488
482
477
477
479
480
481
479
480
483
488
493
494
498
499
502
504
503
504
499
496
493
489
492
495
499
499
497
496
494
497
496
498
498
498
497
495
493
492
490
487
487
483
491
498
509
515
516
519
523
524
525
525
523
521
518
512
506
502
500
494
486
478
480
483
485
487
486
487
489
496
499
503
508
511
512
512
510
508
504
499
494
486
487
492
500
504
511
513
514
513
513
514
515
517
515
514
511
507
502
494
487
485
483
485
489
492
494
496
499
504
507
512
516
519
517
515
513
507
501
495
487
481
484
486
492
494
497
501
507
512
517
522
525
527
527
526
523
520
514
507
502
498
500
500
505
506
508
511
513
515
517
519
522
522
521
518
512
508
502
494
485
478
478
480
484
485
486
487
489
494
498
498
502
501
502
503
498
495
490
483
479
476
479
483
488
492
496
499
503
510
512
514
516
516
515
513
507
505
498
491
483
478
477
479
480
482
480
481
484
489
495
500
505
508
507
504
502
498
494
487
480
474
477
479
484
488
491
493
497
503
506
508
512
509
510
512
510
508
503
496
491
489
489
494
497
498
499
503
504
510
512
513
515
515
516
514
510
507
500
493
486
482
480
483
484
485
487
488
492
494
495
496
497
498
499
499
499
493
489
483
478
472
474
476
481
484
489
492
495
499
499
499
501
501
500
498
497
492
488
484
480
477
479
481
487
491
495
496
499
504
507
510
514
517
518
519
518
514
512
507
502
497
498
504
509
512
515
521
525
532
536
539
539
539
540
538
534
537
537
533
526
518
518
517
513
511
509
510
507
509
509
512
516
516
514
512
509
505
499
495
491
487
488
491
494
496
499
499
504
508
511
516
518
522
524
524
523
520
518
513
505
501
506
514
521
524
524
523
524
526
528
530
527
524
520
513
505
499
493
486
480
472
471
472
471
467
464
463
465
468
470
469
470
470
468
467
467
466
463
459
455
449
451
458
467
472
475
480
486
489
494
501
502
506
508
507
505
504
499
492
486
479
480
485
489
490
487
483
486
490
492
494
499
498
498
496
495
493
491
487
484
480
481
485
488
493
499
505
509
513
516
517
518
518
517
516
512
509
504
497
493
489
493
497
499
500
503
507
510
515
519
525
527
529
529
531
527
526
523
518
510
506
508
512
516
518
518
520
522
527
529
532
530
530
530
527
523
519
518
512
506
502
504
508
512
514
516
519
521
527
532
534
537
536
536
535
531
528
521
514
508
504
506
508
511
512
514
517
519
523
525
527
531
530
530
529
527
526
522
516
512
512
516
521
527
530
532
536
538
545
550
553
558
559
562
563
566
571
567
559
552
545
547
550
550
549
558
565
574
578
576
572
560
556
552
551
551
546
539
527
518
513
517
525
530
533
532
535
540
544
543
542
542
540
536
533
527
518
505
493
485
480
483
490
496
503
509
516
526
537
545
550
550
546
542
533
523
518
511
505
502
495
496
499
504
507
507
510
511
516
519
523
524
528
531
532
531
530
524
517
510
508
512
519
526
530
531
535
538
540
542
544
546
548
551
550
547
543
536
527
518
509
506
507
508
510
508
505
507
508
511
514
515
510
508
505
497
488
479
472
463
455
458
461
462
463
463
465
467
472
474
473
473
472
474
471
467
464
457
451
447
443
444
446
451
455
457
458
460
464
465
465
467
470
471
471
465
459
454
449
442
438
438
443
447
448
449
450
452
457
459
461
463
464
466
465
461
460
452
448
445
444
444
450
453
455
457
462
466
473
477
480
482
484
486
485
485
480
476
470
464
461
462
466
470
473
474
480
483
487
492
496
499
499
500
499
496
494
487
481
475
470
472
474
477
476
472
473
473
476
479
481
487
490
491
491
493
504
512
511
501
489
484
486
485
482
482
479
477
473
470
468
465
463
461
460
457
453
450
445
441
444
448
454
463
470
472
475
482
489
493
495
494
491
491
488
486
482
480
476
470
468
465
469
473
476
478
479
482
487
487
491
490
490
490
488
485
482
479
474
471
470
470
474
479
486
487
489
491
496
501
503
506
508
507
505
500
495
492
487
482
478
479
481
483
482
484
483
483
486
487
488
491
493
495
494
491
487
483
479
478
478
484
492
499
504
507
512
519
526
530
536
534
535
536
534
530
527
523
518
512
511
513
516
519
519
519
521
521
523
526
527
527
528
531
527
523
515
510
502
495
490
491
491
493
494
494
495
497
499
500
503
505
507
508
507
507
502
499
494
489
488
488
492
494
494
495
494
497
503
506
510
513
513
511
510
507
508
504
499
494
492
496
500
504
504
505
507
509
514
514
515
518
517
517
518
515
511
506
497
490
487
492
497
501
502
504
507
511
515
518
520
521
522
520
519
516
513
510
503
499
494
494
494
497
497
499
503
506
512
515
518
519
517
514
512
504
502
500
497
495
495
499
501
502
503
503
504
508
510
510
509
509
507
505
503
497
495
489
482
476
474
476
483
489
492
492
495
499
504
508
512
516
515
516
514
512
509
505
499
496
496
496
500
506
508
513
514
520
526
527
529
531
532
533
532
528
526
519
515
510
508
511
518
524
525
526
528
529
537
544
549
548
546
544
541
537
535
531
528
525
521
525
528
530
529
530
527
530
532
534
536
538
539
537
534
528
523
516
510
504
502
500
503
504
501
501
502
506
509
513
517
523
525
527
528
524
522
518
514
512
512
509
509
509
511
516
524
531
538
543
547
544
540
536
531
524
518
510
501
493
489
488
489
488
487
484
483
487
490
490
493
492
492
491
489
489
488
484
478
468
464
465
475
476
473
480
493
506
516
524
529
530
527
525
525
526
520
514
511
507
505
508
512
519
519
517
518
518
519
519
520
520
519
517
514
510
503
497
489
483
478
482
487
494
496
498
500
502
505
507
507
508
507
508
507
505
506
505
502
498
497
500
504
511
513
513
515
517
519
524
526
527
527
526
523
517
515
512
507
502
501
503
505
510
512
514
516
517
521
522
523
519
517
517
512
508
504
498
491
485
483
487
490
495
497
497
498
502
505
508
509
511
510
510
510
509
502
496
490
484
480
482
484
487
487
491
489
494
498
502
501
504
504
504
502
496
494
488
481
477
476
482
484
487
490
492
493
496
499
501
504
508
510
510
507
503
502
500
497
494
494
501
505
509
510
512
516
523
531
535
539
540
540
539
535
531
529
525
519
513
510
511
515
518
518
517
516
518
518
517
518
519
517
518
514
510
507
499
493
488
487
492
495
498
500
500
503
505
509
512
512
513
512
511
509
507
509
502
494
487
485
488
491
492
495
496
499
500
504
507
509
512
512
513
512
508
501
495
490
486
482
485
487
487
489
492
490
492
497
501
503
504
505
504
500
497
494
489
487
483
487
489
493
492
492
491
492
497
502
507
510
509
507
508
508
505
505
502
498
492
490
493
495
497
499
498
500
499
502
504
504
504
504
504
504
503
499
492
487
481
480
483
488
491
492
495
497
499
505
511
516
516
515
513
511
506
500
493
488
485
483
488
491
494
493
494
496
500
503
507
512
514
513
513
513
512
512
505
500
494
491
490
493
496
499
499
501
504
507
512
515
517
518
516
515
512
508
500
493
488
485
487
489
491
491
490
492
494
497
500
503
504
505
506
505
502
499
496
491
484
482
487
494
500
505
506
511
516
522
527
531
532
530
526
520
514
508
499
489
480
475
472
472
472
471
471
473
476
482
487
492
497
503
507
510
510
510
508
505
503
503
508
510
513
512
512
513
515
517
517
516
516
516
515
513
511
507
501
493
487
483
485
489
492
492
492
492
495
499
499
499
503
505
505
505
504
504
501
497
490
488
488
490
494
500
503
507
507
508
509
508
509
507
505
501
494
487
480
470
465
465
466
471
474
476
481
487
493
495
495
497
501
503
506
507
509
505
502
500
499
499
508
513
517
517
519
521
524
527
528
529
529
526
523
519
512
507
499
492
486
487
490
496
500
500
499
499
502
504
504
503
502
499
496
492
487
483
477
471
465
462
465
470
474
478
478
479
481
483
487
491
492
492
492
492
492
491
486
480
476
473
478
483
485
487
491
489
493
496
499
502
503
504
504
503
498
495
488
483
476
472
468
468
470
469
474
491
507
516
521
524
516
504
487
474
465
462
473
491
508
521
521
517
505
494
491
494
502
514
526
534
537
533
526
516
502
492
482
473
462
455
449
446
441
440
441
449
460
474
486
494
497
499
502
504
509
515
514
511
508
507
511
516
519
519
516
515
513
511
507
503
498
495
493
491
486
483
475
471
469
470
479
485
491
493
494
500
503
505
510
515
522
523
521
518
512
507
499
492
487
488
490
492
494
496
500
508
512
514
515
515
514
513
513
514
512
509
506
502
497
499
504
511
517
520
521
519
522
521
520
522
520
519
519
518
515
510
506
501
496
495
497
502
504
504
505
504
506
509
511
511
511
510
510
508
508
501
497
492
488
488
492
500
506
508
512
515
520
523
525
526
526
523
523
524
525
524
518
512
506
501
501
502
504
505
502
500
504
507
504
501
496
493
493
492
489
487
480
476
471
468
470
473
476
479
479
483
488
491
495
500
506
509
512
512
512
510
507
503
499
503
508
515
519
521
524
525
528
530
531
529
527
523
520
515
509
505
497
488
484
482
486
487
489
489
488
488
490
492
497
498
498
495
491
488
487
486
483
479
474
472
474
479
485
487
488
492
498
505
510
514
518
521
524
522
519
516
509
505
503
503
508
509
513
517
516
519
519
521
524
528
528
530
530
527
523
519
511
504
498
497
500
504
507
507
504
504
508
510
510
511
511
508
508
507
507
503
501
497
492
492
494
498
501
501
500
501
504
507
509
509
512
509
507
503
499
495
490
486
482
483
487
492
496
498
499
502
506
509
512
511
510
510
507
503
498
494
489
485
482
482
487
493
496
499
500
501
505
508
511
512
511
508
507
506
504
500
498
495
494
495
500
505
508
509
511
512
515
516
518
519
518
516
515
515
511
507
502
499
496
495
499
504
508
509
508
507
508
510
511
511
510
508
509
509
504
503
496
493
491
492
499
505
510
510
508
508
510
512
516
515
515
516
521
523
518
513
507
500
497
497
500
504
507
509
507
508
510
511
513
513
512
509
508
506
502
499
494
490
483
484
488
491
491
490
492
492
494
495
497
495
495
496
496
496
494
492
489
484
480
479
484
489
493
495
496
496
496
498
501
500
501
502
506
505
503
500
497
495
494
496
504
511
513
511
507
508
506
505
505
505
507
508
508
508
508
506
502
499
499
502
512
524
544
540
527
536
555
558
554
559
562
554
545
536
520
496
472
454
447
459
483
500
510
506
494
483
480
484
493
499
498
489
472
445
403
370
359
369
391
415
433
446
454
459
464
470
478
483
485
483
481
478
478
477
478
480
481
480
475
474
478
482
483
486
489
494
497
500
503
503
505
504
506
504
502
502
496
489
482
480
484
484
482
481
483
488
479
464
460
463
470
475
483
488
486
484
479
476
472
472
472
474
474
476
480
483
489
489
487
480
475
472
471
470
469
472
467
465
463
468
475
486
491
495
499
504
506
508
514
513
515
515
518
519
519
515
511
506
501
503
528
579
565
561
604
603
557
513
476
443
437
459
489
500
480
448
414
404
429
471
510
531
528
508
486
478
480
495
517
524
523
518
510
500
492
487
483
483
485
488
491
491
488
483
484
484
487
491
492
489
487
482
479
477
477
479
477
475
472
475
484
495
503
509
514
521
524
527
529
530
531
533
536
536
535
534
529
526
521
522
524
528
530
530
529
529
532
532
532
531
530
525
522
518
513
508
503
499
495
492
495
499
500
499
498
499
500
500
500
499
497
496
496
495
495
496
493
490
486
484
491
494
496
497
494
496
497
499
500
504
504
505
507
507
506
503
497
494
492
496
496
500
503
504
504
506
507
511
513
514
513
513
513
513
510
506
501
497
496
497
502
504
505
507
508
508
511
514
518
519
515
512
512
511
510
510
510
507
503
505
511
512
514
513
514
515
515
516
519
514
514
514
513
511
507
504
501
498
497
499
503
506
510
511
511
512
514
515
514
513
511
508
505
505
500
499
494
492
491
496
500
510
520
526
529
530
533
537
540
538
537
536
536
534
533
526
520
516
512
513
518
520
519
516
515
514
516
519
519
518
518
516
516
515
512
509
505
502
497
500
507
511
514
517
515
516
519
521
523
520
518
516
515
515
513
511
504
497
493
492
496
500
500
501
502
503
505
506
507
505
505
505
505
504
503
502
497
494
492
492
496
497
496
494
492
492
494
497
500
501
504
507
508
508
509
510
510
509
510
515
523
527
527
526
526
531
537
539
536
532
524
520
516
512
510
506
498
494
489
486
488
487
484
481
481
480
480
480
483
483
483
481
479
478
479
478
477
476
473
477
485
492
499
502
503
505
511
513
515
519
518
519
520
523
520
514
508
501
499
498
502
506
507
505
500
500
499
499
503
503
500
498
497
494
487
484
479
474
470
471
473
477
479
479
478
475
476
478
482
481
481
480
479
479
479
477
476
474
476
484
494
499
499
497
495
492
496
498
500
502
500
499
497
499
499
500
499
497
496
497
502
504
509
510
511
512
515
517
515
510
508
508
508
507
505
503
499
496
493
494
498
498
498
499
499
500
502
504
508
507
508
508
506
504
500
499
497
496
495
495
499
503
504
503
502
503
505
507
509
506
506
507
507
507
505
504
500
495
489
489
493
496
499
501
500
501
504
506
509
509
510
510
511
508
506
503
500
497
496
501
502
505
508
510
511
514
519
520
522
523
524
526
527
526
524
520
517
515
515
518
521
522
522
519
517
519
520
523
526
524
517
510
506
503
499
496
490
485
484
488
495
501
504
508
507
509
511
514
516
514
512
511
511
512
510
507
501
498
494
495
500
506
508
510
513
516
518
519
521
518
515
513
513
512
510
505
503
500
498
501
506
512
515
514
512
512
515
518
521
520
519
514
512
510
508
504
504
501
498
500
506
510
512
514
514
515
518
519
522
522
521
522
521
517
513
510
505
500
496
496
500
502
504
504
502
505
505
507
509
507
506
503
501
500
499
496
492
487
480
474
473
480
489
496
499
501
500
498
501
503
504
504
502
500
499
498
496
498
501
504
510
512
511
510
510
511
513
517
522
524
526
528
528
526
522
519
517
514
514
520
528
531
532
531
529
530
533
536
536
532
529
530
530
527
522
518
514
508
505
507
511
512
512
510
506
507
505
505
506
504
502
499
498
496
494
489
484
481
481
485
489
491
495
496
496
500
501
504
510
511
514
513
514
513
512
504
499
492
486
486
483
481
477
472
470
469
473
474
476
477
480
483
488
492
493
496
499
497
495
498
504
507
506
505
503
502
503
502
503
498
500
502
507
509
504
499
492
486
487
487
493
494
494
495
495
494
492
491
495
496
501
504
508
513
513
510
507
504
508
513
524
529
531
528
524
522
521
520
520
519
518
517
517
513
511
505
503
498
496
497
500
499
502
504
510
514
519
518
512
504
502
502
509
513
515
515
513
511
513
519
527
534
536
537
540
543
540
539
542
542
538
536
534
529
525
520
515
510
507
512
519
524
526
524
521
517
517
515
516
514
511
507
505
501
502
496
493
489
487
486
488
490
491
492
494
492
495
496
497
496
493
493
494
494
493
487
484
480
477
479
482
485
487
486
486
483
483
483
483
481
479
478
479
478
475
471
466
464
462
465
468
474
477
478
478
478
478
481
483
486
486
488
488
488
487
483
479
475
474
477
482
486
486
486
484
482
484
486
487
485
485
484
485
484
482
480
475
470
471
471
475
479
481
481
483
486
487
489
489
490
493
497
502
507
512
511
507
502
501
499
502
503
506
507
504
505
508
511
517
527
536
537
535
527
515
506
498
487
482
483
486
488
489
487
483
483
481
483
486
487
486
483
481
479
476
473
470
468
471
474
479
483
485
486
486
488
492
495
493
479
468
470
474
480
488
490
489
487
486
489
497
504
507
510
512
513
514
517
519
519
513
512
511
509
509
505
502
498
497
499
501
505
508
511
511
511
513
514
517
514
513
515
519
526
524
519
514
504
495
489
492
500
510
519
520
517
512
509
509
512
524
540
551
550
539
525
511
498
494
496
504
513
513
514
510
506
506
508
510
511
508
502
497
489
478
468
461
459
462
467
472
476
479
483
484
489
501
511
519
521
518
515
512
511
509
510
512
515
519
527
536
540
544
545
544
543
543
542
542
539
537
534
532
528
523
518
509
503
499
499
502
502
502
500
499
495
493
491
489
486
485
482
482
482
478
476
470
466
465
469
476
480
482
483
484
487
490
492
494
493
496
497
499
497
499
497
498
496
496
500
505
510
512
514
515
517
519
520
521
519
517
517
517
517
517
517
512
509
508
508
511
514
519
519
520
518
518
515
514
510
510
508
509
509
504
498
492
488
488
491
495
497
498
498
500
498
499
500
499
498
496
494
492
490
486
480
476
473
476
483
493
497
495
491
487
486
484
486
488
491
491
487
484
483
481
480
478
476
477
482
488
493
494
496
494
496
500
503
504
503
502
504
506
509
510
508
507
505
508
512
520
526
527
525
524
524
526
528
529
529
524
523
521
520
518
514
512
509
509
511
513
517
518
517
516
516
516
518
518
515
515
515
515
513
510
507
504
501
501
503
508
511
512
512
512
514
517
517
518
518
518
517
519
518
515
513
508
503
504
508
512
516
516
515
519
516
517
518
520
519
519
520
521
519
515
513
512
511
512
515
520
523
524
523
524
526
527
526
523
518
515
514
513
512
509
503
497
493
491
491
494
495
496
494
492
491
492
492
489
487
486
485
484
483
483
477
475
471
472
474
480
479
479
480
477
480
480
483
484
484
481
481
481
482
483
480
476
474
478
481
489
495
496
499
499
501
503
506
510
510
511
511
512
513
512
509
505
502
502
507
513
515
517
515
515
516
516
516
515
513
512
511
511
510
508
504
501
496
496
499
505
510
510
507
503
503
505
505
506
504
503
504
507
508
507
505
501
496
497
498
500
502
501
497
492
489
486
483
480
475
474
470
471
470
470
469
470
471
475
481
492
500
502
504
503
505
508
511
511
508
505
505
504
503
499
494
489
485
482
481
481
479
476
472
467
465
467
470
472
470
471
472
472
472
472
467
466
466
470
476
480
483
484
485
486
486
488
492
495
496
495
498
497
497
494
489
487
487
488
489
494
492
491
491
490
487
485
484
481
476
474
475
474
472
472
471
469
468
471
476
482
488
491
495
498
507
514
520
527
527
527
526
527
527
527
527
526
523
523
525
528
530
532
534
531
532
534
532
531
527
524
524
524
521
519
511
504
497
497
498
502
504
508
512
515
520
519
515
510
504
499
496
494
492
484
479
475
473
477
482
487
492
497
502
503
504
506
508
508
505
503
501
500
496
492
487
485
482
483
484
489
495
497
497
497
496
497
498
498
497
496
494
494
493
492
487
485
482
484
489
496
499
503
506
503
504
503
504
503
501
501
501
500
498
496
496
495
495
498
502
508
510
511
510
508
507
507
507
504
502
503
502
499
497
495
491
487
485
489
497
504
505
504
502
499
500
502
504
508
507
506
504
506
504
502
499
499
498
499
502
504
502
498
494
490
492
495
496
496
494
496
498
502
506
511
510
504
496
494
495
496
499
500
504
502
504
505
507
508
507
508
509
511
510
504
499
495
490
492
495
502
503
503
505
502
504
503
506
509
506
508
508
509
510
506
501
497
496
497
501
504
507
508
509
503
501
500
503
505
506
508
510
510
511
508
505
503
500
503
505
508
508
507
506
504
506
509
512
515
517
518
523
527
527
528
526
526
526
528
533
539
543
543
543
540
541
542
541
539
536
533
532
530
528
521
516
511
506
504
507
507
506
504
504
502
501
499
498
496
494
494
496
497
497
497
495
493
492
495
501
510
516
523
527
529
534
536
538
539
538
541
540
545
556
536
516
523
525
526
536
546
540
533
527
509
488
474
465
464
476
489
497
495
484
474
463
461
466
478
485
495
494
486
480
477
478
480
485
486
486
484
483
483
485
483
482
483
482
483
486
490
492
492
495
492
494
494
495
495
490
486
486
488
490
489
487
484
485
490
496
500
502
503
501
500
508
515
519
517
512
511
513
517
520
522
521
518
515
519
524
531
536
538
536
529
528
522
518
519
517
519
522
527
528
521
518
516
519
524
528
531
528
525
523
519
521
525
527
521
513
506
502
500
497
495
486
485
483
483
485
489
489
489
491
491
492
490
488
487
483
481
480
480
480
478
475
475
474
479
483
491
496
500
503
504
506
509
511
515
515
516
515
512
511
507
502
499
497
498
503
507
508
506
504
500
500
503
503
501
498
496
498
499
500
500
500
499
496
499
505
510
510
508
507
504
502
496
495
496
497
496
499
503
503
503
499
495
495
499
504
505
502
498
496
496
497
496
497
498
499
502
502
502
502
500
497
493
492
496
499
504
504
504
504
502
502
500
500
502
504
502
500
502
501
502
498
497
496
501
504
512
517
516
513
512
511
509
509
509
507
504
503
504
504
502
494
494
492
494
498
501
502
499
495
492
494
492
494
492
490
487
486
483
481
478
472
469
470
472
477
481
486
495
505
509
505
499
496
493
489
490
490
489
494
500
504
502
496
494
495
497
498
499
497
496
498
497
497
497
502
505
506
505
502
500
495
487
483
485
489
494
493
491
487
482
483
484
485
486
483
481
476
475
476
471
465
463
468
478
487
494
499
501
504
503
499
497
496
493
490
485
483
479
474
470
465
464
463
467
471
475
478
481
483
483
488
491
494
496
496
498
499
502
504
500
500
497
497
502
505
509
512
511
510
509
511
508
505
500
496
492
488
487
483
475
470
466
464
466
471
476
478
478
480
479
483
486
487
489
490
492
495
497
499
500
498
496
494
494
497
500
504
508
519
535
543
538
530
523
518
516
512
512
512
513
510
509
503
501
503
506
508
512
517
523
528
529
531
531
533
532
534
536
540
544
548
551
551
559
560
556
558
561
561
558
558
558
563
572
575
575
572
571
572
573
578
584
591
599
606
620
633
640
646
652
655
652
647
638
629
629
625
626
630
627
624
626
625
624
631
633
639
647
653
657
660
663
659
655
655
660
668
681
694
695
690
683
679
679
678
672
663
656
656
663
670
673
678
675
669
661
652
642
636
630
621
626
634
644
641
638
608
576
571
576
589
609
624
618
601
574
547
532
513
514
543
566
579
587
577
564
557
552
551
551
537
516
508
468
435
443
456
474
499
502
486
467
446
438
448
461
468
468
457
443
431
418
417
415
413
412
408
402
398
391
383
374
371
376
380
385
384
377
367
359
359
361
368
371
368
366
363
361
358
358
361
362
363
364
367
370
370
372
374
373
372
370
369
367
363
364
365
366
365
364
363
363
360
364
367
372
375
376
375
377
380
382
385
388
390
391
395
397
399
402
400
401
400
403
405
410
413
414
413
414
415
418
422
421
420
421
422
424
427
426
425
425
426
429
433
437
438
437
436
438
438
439
439
438
435
436
436
436
434
432
431
432
433
439
446
451
455
456
456
457
461
462
462
462
461
463
463
461
458
454
451
447
445
445
449
448
448
447
443
438
436
434
430
427
424
419
418
417
415
416
412
410
408
412
416
419
422
424
425
427
430
433
437
438
441
448
451
456
460
464
463
463
468
476
483
487
489
490
490
489
489
488
488
485
484
479
476
474
472
470
467
464
462
463
466
469
469
466
462
459
457
456
453
449
447
447
449
451
450
449
449
448
448
451
457
460
461
460
460
460
461
463
465
466
469
468
472
473
473
476
476
476
479
484
488
491
495
496
497
497
498
500
501
500
499
501
504
507
509
511
511
509
511
518
524
530
532
533
531
531
531
532
535
536
534
534
532
533
533
533
532
529
529
534
538
543
545
543
540
538
539
536
536
536
533
528
527
526
525
524
521
519
520
523
527
528
526
523
520
516
515
513
513
509
507
504
505
506
505
504
504
502
504
508
514
518
519
518
517
519
516
517
519
519
519
520
520
522
524
523
523
523
524
528
536
540
543
544
546
545
547
549
550
548
543
541
541
542
541
538
536
536
537
538
545
546
546
543
540
539
538
536
536
534
531
530
531
530
528
527
524
520
521
523
525
527
528
526
524
522
519
519
519
518
513
513
515
516
516
514
512
510
511
517
519
524
524
524
525
523
525
525
525
524
519
520
519
520
520
519
516
515
516
520
523
524
524
523
522
519
520
519
519
516
515
511
512
512
511
508
506
504
504
506
510
513
513
511
508
506
505
505
505
501
498
497
496
494
492
489
485
481
480
484
491
495
496
496
495
494
496
496
499
499
498
499
500
501
500
499
499
499
503
508
511
515
518
517
515
511
512
513
514
513
514
514
526
542
553
551
540
524
515
509
505
502
496
495
494
494
493
493
496
499
497
502
504
505
504
501
494
489
488
489
489
491
491
492
491
491
492
495
497
499
499
497
496
496
496
494
492
490
488
488
491
492
491
487
485
482
483
485
488
490
489
493
498
504
508
510
511
511
510
517
523
525
524
522
519
516
512
509
506
502
497
495
494
492
487
484
481
479
477
479
482
484
486
486
482
482
484
486
488
491
493
495
498
500
500
499
499
501
504
507
510
511
512
512
511
508
508
508
507
501
496
495
493
490
488
495
504
503
494
484
480
480
480
478
475
475
477
480
484
485
486
492
498
502
502
503
505
502
505
511
517
520
519
518
515
514
515
514
516
515
514
515
518
519
519
520
515
512
513
517
519
521
521
520
517
514
513
513
510
508
508
504
505
504
503
501
501
500
499
499
501
505
505
504
503
499
496
494
493
492
490
489
491
491
491
486
484
480
480
484
488
491
493
492
489
487
487
487
489
488
486
486
488
491
492
485
478
473
475
481
488
495
498
497
497
496
494
493
493
493
495
495
496
498
497
492
489
490
495
502
508
512
512
511
508
506
507
507
506
505
503
502
504
506
507
508
509
510
512
522
529
536
539
542
543
541
545
551
555
556
551
547
545
540
536
532
532
531
530
532
534
533
537
538
539
539
539
533
527
521
510
506
504
501
501
497
496
495
499
509
515
519
519
515
512
510
508
510
512
511
508
509
512
515
520
518
518
518
525
531
536
538
538
536
534
530
530
530
529
527
525
528
528
532
534
537
536
534
536
538
541
540
539
539
535
531
529
527
526
524
523
518
517
515
512
511
508
505
506
510
514
513
509
504
499
496
494
489
486
483
480
476
477
478
478
474
473
471
472
476
480
484
487
488
489
489
491
489
487
485
483
478
477
476
476
474
473
475
485
496
496
490
483
478
470
465
458
456
457
455
454
455
454
455
455
452
455
457
462
469
473
478
479
477
477
476
479
479
482
482
483
484
490
497
501
503
506
511
519
528
536
541
543
543
541
539
539
538
536
532
530
527
527
528
530
525
523
522
523
526
531
532
531
530
526
524
521
519
519
516
512
512
510
512
514
513
510
510
513
518
522
524
524
525
523
520
519
519
518
515
512
512
512
511
509
505
505
504
509
520
531
538
532
523
516
510
504
503
501
495
493
492
496
498
500
501
502
502
504
508
513
519
520
520
519
515
514
512
511
508
503
504
505
505
506
506
506
504
505
510
514
516
516
514
511
504
502
499
497
494
491
490
487
488
487
483
481
480
481
487
492
496
493
491
491
489
490
490
488
486
485
485
487
487
487
485
484
483
483
488
492
492
491
492
492
492
494
497
499
499
496
496
498
499
501
500
500
501
502
510
513
516
517
516
514
512
513
514
513
513
513
514
516
518
518
518
514
514
516
519
520
521
522
521
520
520
519
519
519
515
514
512
515
515
514
514
509
510
511
516
518
521
518
517
515
516
514
515
513
509
506
506
507
507
504
503
512
523
527
527
523
521
516
511
508
502
497
499
499
496
495
497
499
501
502
503
504
503
504
511
515
516
516
514
510
506
503
504
502
498
495
497
502
503
503
500
496
493
496
503
509
516
519
516
508
503
498
494
489
487
487
487
487
487
487
483
482
482
487
493
498
500
500
499
496
493
494
495
494
491
487
487
487
486
487
484
485
483
487
492
495
498
500
500
499
498
497
498
500
504
504
500
496
492
490
487
483
479
480
485
491
497
500
501
500
499
501
505
506
504
503
504
507
508
508
503
499
493
494
498
502
498
496
492
489
488
486
484
482
480
481
483
487
491
489
485
479
470
469
473
478
483
481
477
473
473
473
473
476
477
481
482
484
486
487
485
483
479
479
482
483
485
481
476
471
468
467
467
469
470
474
479
482
487
489
491
495
499
506
512
518
521
525
528
531
530
530
532
533
531
531
532
534
533
535
536
536
536
539
542
545
546
545
545
542
541
541
540
537
534
532
529
529
529
528
523
518
512
510
511
512
513
513
514
519
511
500
492
485
479
473
467
465
463
458
454
452
451
453
458
461
460
452
442
427
412
397
377
339
312
306
330
366
394
412
420
427
434
443
460
475
485
494
501
507
516
513
510
504
502
497
493
484
476
474
469
470
472
480
490
501
510
513
516
510
502
495
496
499
499
498
496
494
493
493
492
492
492
493
497
502
507
513
519
517
514
510
507
504
501
499
500
504
505
505
502
499
497
497
502
505
507
507
504
502
502
505
508
509
510
508
510
509
508
507
503
502
502
505
511
517
520
516
516
512
508
510
511
512
513
511
514
517
520
524
525
526
527
530
535
537
540
537
536
534
534
531
531
531
529
527
527
527
529
533
531
529
530
535
540
544
547
545
546
542
540
540
541
543
542
542
546
549
548
544
540
539
538
544
549
553
553
552
550
549
546
548
551
551
549
545
543
544
552
559
560
558
552
550
551
548
546
544
541
538
535
535
535
531
527
523
520
520
521
520
519
519
517
519
520
519
523
523
522
518
518
516
519
517
515
512
513
515
518
520
518
516
514
519
527
529
531
530
529
528
527
525
525
524
524
520
522
522
523
524
524
524
525
528
533
538
534
533
530
525
522
518
514
510
506
502
502
501
500
498
496
493
492
496
504
503
504
504
505
507
510
513
517
518
519
517
518
518
519
521
519
521
527
533
536
535
530
522
515
511
508
505
506
509
509
504
492
484
480
475
467
460
457
460
464
465
468
469
469
470
470
470
473
474
473
474
477
481
485
488
488
488
490
496
503
508
511
511
511
508
509
509
511
510
509
510
507
508
509
509
508
507
505
505
508
508
508
507
505
503
501
499
501
499
499
498
499
503
506
507
507
508
508
513
519
519
516
512
508
505
503
500
500
495
492
491
489
491
493
494
495
497
496
500
504
508
512
512
510
503
497
493
494
494
493
495
495
497
499
501
499
497
499
504
510
514
517
516
515
511
509
507
507
505
503
502
503
505
507
508
508
508
508
512
519
522
523
523
522
519
519
519
520
517
515
513
511
510
508
507
505
506
507
510
515
518
518
515
513
510
507
504
500
496
496
495
495
495
495
494
492
488
487
491
496
500
499
500
499
496
496
492
493
491
489
489
489
491
493
494
492
492
492
494
501
502
503
505
505
502
501
500
502
499
499
498
498
501
504
504
503
502
503
505
510
512
513
512
512
512
509
509
509
505
504
502
504
507
507
505
503
501
503
507
510
508
508
506
503
499
498
492
495
493
491
488
489
492
491
492
489
487
488
493
498
500
499
498
496
493
492
493
496
497
496
496
495
497
496
494
491
489
492
496
499
502
503
503
502
499
496
494
494
493
490
489
491
492
493
492
488
483
482
487
492
494
495
496
498
496
497
496
496
494
495
493
494
497
497
497
497
496
496
499
505
507
506
504
503
500
500
499
498
495
496
496
498
499
501
500
497
495
494
497
500
503
500
498
496
492
491
487
488
487
486
487
487
490
492
492
489
488
490
493
498
502
503
502
499
496
495
495
494
491
487
485
487
489
492
493
494
496
497
502
510
513
511
509
505
499
496
491
492
492
489
488
490
492
493
494
495
493
493
494
499
502
499
498
495
491
490
484
483
481
481
479
480
481
483
483
482
486
487
496
504
510
511
511
508
504
501
497
494
490
484
480
477
475
474
473
469
467
466
468
474
476
478
479
480
479
477
476
477
478
480
481
487
491
495
497
499
499
503
509
514
516
518
517
514
511
506
504
501
496
491
487
488
485
485
486
485
483
484
487
491
493
495
494
492
490
484
482
482
480
480
483
483
487
488
489
489
487
488
495
500
504
504
501
497
492
489
487
485
481
479
477
483
490
492
489
479
473
470
474
478
480
482
480
478
477
479
482
487
488
489
491
494
498
502
505
507
506
508
513
522
525
527
528
527
524
525
526
527
526
526
526
525
524
523
522
524
520
522
526
529
531
527
524
521
516
515
511
510
505
500
495
494
495
495
493
490
490
492
496
502
504
505
502
499
496
496
495
492
488
483
484
484
484
487
487
487
488
489
494
499
502
502
500
499
500
501
499
498
494
489
485
486
488
492
493
491
491
494
498
507
508
509
510
509
506
504
503
502
499
496
495
496
496
497
499
496
493
494
498
503
508
507
504
502
501
499
497
496
496
494
493
494
496
497
495
496
494
499
504
513
