0
0
0
0
523
1022
1023
1022
1023
1022
1022
1022
736
370
129
0
0
0
0
0
0
0
0
0
652
1022
1022
1022
1023
1022
1022
1022
769
396
144
0
0
0
0
0
0
0
0
0
545
1022
1022
1022
1023
1022
1022
1022
619
280
56
0
0
0
0
0
0
0
0
0
283
1022
1022
1022
1023
1022
1022
1022
615
280
56
0
0
0
0
0
0
0
0
0
316
1023
1022
1022
1023
1022
1022
1022
573
254
35
0
0
0
0
0
0
0
0
0
369
1023
1022
1022
1023
1022
1022
1022
577
259
36
0
0
0
0
0
0
0
0
0
563
1023
1022
1022
1022
1022
1022
1022
612
290
60
0
0
0
0
0
0
0
0
0
743
1022
1022
1022
1022
1022
1022
1023
646
318
78
0
0
0
0
0
0
0
0
0
315
1022
1022
1022
1022
1022
1022
1022
511
218
6
0
0
0
0
0
0
0
0
0
389
1022
1023
1023
1023
1022
1023
1022
510
219
7
0
0
0
0
0
0
0
0
0
429
1022
1023
1023
1022
1022
1022
1022
500
211
2
0
0
0
0
0
0
0
0
0
629
1022
1022
1023
1022
1022
1022
1022
576
271
45
0
0
0
0
0
0
0
0
0
700
1022
1022
1022
1023
1022
1022
1022
495
213
2
0
0
0
0
0
0
0
0
0
618
1022
1022
1022
1022
1022
1022
1022
512
228
9
0
0
0
0
0
0
0
0
0
831
1022
1022
1022
1022
1022
1022
1022
560
267
39
0
0
0
0
0
0
0
0
0
529
1022
1022
1022
1023
1022
1022
937
408
154
0
0
0
0
0
0
0
0
0
0
588
1022
1023
1022
1022
1022
1022
1019
453
190
0
0
0
0
0
0
0
0
0
0
876
1022
1023
1023
1022
1022
1022
1022
515
236
17
0
0
0
0
0
0
0
0
0
829
1022
1023
1023
1023
1022
1022
1022
492
222
6
0
0
0
0
0
0
0
0
0
861
1022
1023
1022
1022
1022
1022
1022
505
232
10
0
0
0
0
0
0
0
0
0
1012
1022
1022
1022
1023
1022
1022
1022
519
241
15
0
0
0
0
0
0
0
0
0
949
1022
1022
1022
1023
1022
1022
1014
456
195
0
0
0
0
0
0
0
0
0
0
824
1022
1022
1022
1022
1022
1022
932
414
164
0
0
0
0
0
0
0
0
0
0
942
1022
1022
1023
1022
1022
1022
1011
450
194
0
0
0
0
0
0
0
0
0
0
848
1022
1023
1022
1022
1022
1022
970
443
188
0
0
0
0
0
0
0
0
0
0
798
1022
1023
1022
1022
1022
1022
897
395
146
0
0
0
0
0
0
0
0
0
0
897
1022
1022
1023
1023
1022
1022
1022
486
222
1
0
0
0
0
0
0
0
0
0
1009
1022
1022
1022
1022
1022
1022
902
403
160
0
0
0
0
0
0
0
0
0
0
936
1022
1022
1022
1022
1022
1022
876
384
147
0
0
0
0
0
0
0
0
0
0
1011
1022
1022
1022
1023
1022
1022
901
403
164
0
0
0
0
0
0
0
0
0
60
1022
1022
1022
1022
1022
1022
1022
964
448
198
0
0
0
0
0
0
0
0
0
0
1011
1022
1022
1023
1023
1022
1022
845
365
134
0
0
0
0
0
0
0
0
0
5
1022
1022
1022
1022
1023
1022
1022
914
419
173
0
0
0
0
0
0
0
0
0
0
940
1022
1022
1022
1023
1022
1022
776
319
102
0
0
0
0
0
0
0
0
0
70
1022
1022
1022
1022
1023
1022
1022
855
382
150
0
0
0
0
0
0
0
0
0
0
1022
1022
1022
1023
1023
1022
1022
807
347
125
0
0
0
0
0
0
0
0
0
193
1022
1022
1022
1022
1023
1022
1022
827
366
140
0
0
0
0
0
0
0
0
0
161
1022
1022
1022
1022
1022
1022
1022
852
384
152
0
0
0
0
0
0
0
0
0
149
1022
1023
1022
1022
1023
1022
1022
851
386
153
0
0
0
0
0
0
0
0
0
145
1022
1022
1022
1022
1023
1022
1022
770
328
105
0
0
0
0
0
0
0
0
0
0
1022
1022
1022
1022
1022
1022
1022
757
326
104
0
0
0
0
0
0
0
0
0
113
1022
1022
1022
1022
1023
1022
1022
758
331
110
0
0
0
0
0
0
0
0
0
214
1022
1022
1022
1022
1022
1022
1022
696
290
77
0
0
0
0
0
0
0
0
0
128
1022
1022
1023
1023
1023
1022
1022
716
310
93
0
0
0
0
0
0
0
0
0
60
1022
1022
1022
1023
1022
1022
1022
688
294
83
0
0
0
0
0
0
0
0
0
171
1022
1022
1023
1023
1022
1022
1022
731
332
109
0
0
0
0
0
0
0
0
0
52
1022
1022
1022
1022
1022
1022
1022
630
258
50
0
0
0
0
0
0
0
0
0
430
1022
1022
1022
1022
1022
1022
1022
748
356
124
0
0
0
0
0
0
0
0
0
650
1022
1022
1022
1022
1023
1022
1022
814
410
161
0
0
0
0
0
0
0
0
0
141
1022
1022
1022
1022
1023
1022
1022
629
272
56
0
0
0
0
0
0
0
0
0
533
1022
1022
1023
1023
1023
1022
1022
734
358
122
0
0
0
0
0
0
0
0
0
772
1022
1022
1023
1023
1023
1022
1022
886
470
202
0
0
0
0
0
0
0
0
0
695
1022
1022
1023
1023
1022
1022
1022
803
405
150
0
0
0
0
0
0
0
0
0
696
1022
1022
1023
1023
1022
1022
1022
787
396
107
0
0
0
0
0
0
0
0
0
721
1022
1022
1023
1022
1022
1022
1022
785
397
129
0
0
0
0
0
0
0
0
0
702
1023
1022
1023
1022
1023
1022
1022
694
330
81
0
0
0
0
0
0
0
0
0
641
1023
1022
1022
1022
1023
1022
1022
697
335
83
0
0
0
0
0
0
0
0
0
707
1023
1022
1022
1022
1023
1022
1022
695
337
82
0
0
0
0
0
0
0
0
0
808
1022
1022
1022
1022
1023
1022
1022
662
311
62
0
0
0
0
0
0
0
0
0
771
1022
1022
1022
1022
1022
1022
1022
649
303
55
0
0
0
0
0
0
0
0
0
825
1022
1022
1022
1022
1022
1022
1022
641
298
47
0
0
0
0
0
0
0
0
0
738
1022
1022
1022
1023
1022
1022
1022
618
282
33
0
0
0
0
0
0
0
0
0
734
1022
1022
1022
1022
1023
1022
1022
542
229
0
0
0
0
0
0
0
0
0
0
505
1022
1022
1022
1022
1023
1022
997
420
142
0
0
0
0
0
0
0
0
0
0
616
1022
1022
1023
1022
1022
1022
1022
524
224
0
0
0
0
0
0
0
0
0
0
471
1022
1022
1022
1022
1023
1022
1022
478
191
0
0
0
0
0
0
0
0
0
0
439
1022
1022
1022
1022
1023
1022
925
393
128
0
0
0
0
0
0
0
0
0
0
617
1022
1022
1022
1022
1023
1022
1021
462
183
0
0
0
0
0
0
0
0
0
0
802
1022
1022
1022
1022
1023
1022
1022
475
198
0
0
0
0
0
0
0
0
0
0
966
1022
1022
1023
1022
1022
1022
1022
594
289
41
0
0
0
0
0
0
0
0
0
552
1022
1022
1023
1023
1022
1022
1022
471
197
0
0
0
0
0
0
0
0
0
0
927
1022
1022
1022
1022
1022
1022
1022
511
229
2
0
0
0
0
0
0
0
0
0
613
1022
1022
1022
1022
1022
1022
1012
456
187
0
0
0
0
0
0
0
0
0
0
748
1022
1022
1022
1022
1023
1022
1021
474
202
0
0
0
0
0
0
0
0
0
0
657
1022
1022
1023
1022
1022
1022
903
401
149
0
0
0
0
0
0
0
0
0
0
903
1022
1022
1022
1022
1023
1023
1022
505
228
2
0
0
0
0
0
0
0
0
0
674
1022
1022
1022
1022
1022
1022
882
393
144
0
0
0
0
0
0
0
0
0
0
926
1022
1022
1022
1022
1023
1022
914
422
167
0
0
0
0
0
0
0
0
0
0
801
1022
1022
1022
1022
1022
1022
884
398
153
0
0
0
0
0
0
0
0
0
0
722
1022
1022
1022
1022
1022
1022
905
415
167
0
0
0
0
0
0
0
0
0
0
906
1022
1022
1022
1022
1023
1022
886
407
161
0
0
0
0
0
0
0
0
0
0
1022
1022
1022
1023
1022
1022
1022
939
449
191
0
0
0
0
0
0
0
0
0
102
1022
1022
1022
1023
1023
1022
1022
897
418
169
0
0
0
0
0
0
0
0
0
0
928
1022
1022
1022
1022
1023
1022
854
388
147
0
0
0
0
0
0
0
0
0
0
859
1022
1022
1022
1022
1022
1023
831
376
140
0
0
0
0
0
0
0
0
0
0
966
1022
1022
1022
1023
1022
1022
867
403
162
0
0
0
0
0
0
0
0
0
0
848
1022
1023
1022
1022
1022
1022
879
415
172
0
0
0
0
0
0
0
0
0
0
1021
1022
1022
1022
1022
1022
1022
805
363
130
0
0
0
0
0
0
0
0
0
0
895
1022
1022
1022
1022
1023
1022
780
346
119
0
0
0
0
0
0
0
0
0
0
1022
1022
1022
1022
1023
1022
1022
819
384
149
0
0
0
0
0
0
0
0
0
225
1022
1022
1022
1023
1023
1022
1022
837
400
159
0
0
0
0
0
0
0
0
0
375
1022
1022
1022
1023
1022
1022
1022
856
414
168
0
0
0
0
0
0
0
0
0
188
1022
1022
1023
1022
1022
1022
1022
811
380
142
0
0
0
0
0
0
0
0
0
121
1022
1022
1022
1022
1022
1022
1022
743
330
103
0
0
0
0
0
0
0
0
0
331
1022
1022
1022
1022
1022
1022
1022
791
369
133
0
0
0
0
0
0
0
0
0
0
1022
1022
1022
1022
1022
1022
1022
684
294
72
0
0
0
0
0
0
0
0
0
259
1022
1022
1022
1022
1022
1022
1022
796
382
135
0
0
0
0
0
0
0
0
0
166
1022
1022
1022
1022
1022
1022
1022
699
312
85
0
0
0
0
0
0
0
0
0
87
1022
1022
1022
1022
1022
1022
1022
644
276
55
0
0
0
0
0
0
0
0
0
159
1022
1022
1022
1022
1022
1022
1022
713
332
101
0
0
0
0
0
0
0
0
0
343
1022
1022
1022
1022
1023
1022
1022
734
348
113
0
0
0
0
0
0
0
0
0
347
1022
1022
1022
1022
1023
1022
1022
701
327
94
0
0
0
0
0
0
0
0
0
457
1022
1022
1022
1022
1022
1022
1022
687
320
87
0
0
0
0
0
0
0
0
0
363
1022
1022
1022
1022
1022
1022
1022
702
334
95
0
0
0
0
0
0
0
0
0
333
1022
1022
1022
1022
1022
1022
1022
659
307
74
0
0
0
0
0
0
0
0
0
156
1022
1022
1022
1022
1022
1023
1022
596
263
41
0
0
0
0
0
0
0
0
0
179
1022
1022
1022
1022
1023
1022
1022
548
234
23
0
0
0
0
0
0
0
0
0
510
1022
1022
1022
1022
1022
1022
1022
670
327
91
0
0
0
0
0
0
0
0
0
428
1022
1022
1022
1022
1022
1022
1022
581
258
39
0
0
0
0
0
0
0
0
0
377
1022
1022
1022
1022
1022
1022
1022
521
217
8
0
0
0
0
0
0
0
0
0
290
1022
1022
1022
1022
1022
1023
1022
554
248
29
0
0
0
0
0
0
0
0
0
789
1022
1022
1022
1022
1022
1022
1022
642
314
75
0
0
0
0
0
0
0
0
0
646
1022
1022
1022
1022
1022
1022
1022
651
323
82
0
0
0
0
0
0
0
0
0
359
1022
1022
1022
1022
1022
1022
1022
507
218
4
0
0
0
0
0
0
0
0
0
391
1022
1022
1022
1022
1022
1023
1022
512
223
9
0
0
0
0
0
0
0
0
0
691
1022
1022
1022
1022
1022
1022
1022
602
290
58
0
0
0
0
0
0
0
0
0
417
1022
1022
1022
1022
1022
1022
1022
522
235
16
0
0
0
0
0
0
0
0
0
763
1023
1022
1022
1022
1022
1022
1022
547
254
28
0
0
0
0
0
0
0
0
0
741
1022
1022
1022
1022
1022
1022
1022
620
309
67
0
0
0
0
0
0
0
0
0
613
1022
1022
1022
1022
1022
1022
1022
532
246
19
0
0
0
0
0
0
0
0
0
799
1022
1022
1022
1022
1022
1023
1022
505
227
6
0
0
0
0
0
0
0
0
0
956
1022
1022
1022
1022
1023
1022
1022
574
278
43
0
0
0
0
0
0
0
0
0
844
1022
1022
1022
1022
1022
1022
1022
487
210
0
0
0
0
0
0
0
0
0
0
527
1022
1022
1022
1022
1023
1022
913
405
146
0
0
0
0
0
0
0
0
0
0
856
1022
1022
1022
1022
1022
1022
1022
527
246
15
0
0
0
0
0
0
0
0
0
1016
1022
1022
1022
1022
1023
1022
1022
571
277
34
0
0
0
0
0
0
0
0
0
697
1022
1022
1022
1022
1023
1022
973
455
189
0
0
0
0
0
0
0
0
0
0
863
1022
1022
1022
1022
1022
1022
1021
483
212
0
0
0
0
0
0
0
0
0
0
696
1022
1022
1022
1022
1022
1022
882
393
145
0
0
0
0
0
0
0
0
0
0
665
1022
1022
1022
1022
1022
1022
881
396
147
0
0
0
0
0
0
0
0
0
0
950
1022
1023
1022
1022
1022
1022
909
419
164
0
0
0
0
0
0
0
0
0
0
878
1022
1022
1022
1022
1022
1022
937
444
185
0
0
0
0
0
0
0
0
0
0
1020
1022
1022
1022
1022
1022
1022
1020
493
223
0
0
0
0
0
0
0
0
0
0
982
1022
1022
1022
1022
1022
1022
870
397
151
0
0
0
0
0
0
0
0
0
0
1019
1023
1022
1022
1022
1023
1022
925
442
188
0
0
0
0
0
0
0
0
0
72
1022
1023
1022
1022
1022
1022
1022
905
423
172
0
0
0
0
0
0
0
0
0
102
1022
1022
1022
1022
1022
1022
1022
978
471
208
0
0
0
0
0
0
0
0
0
0
966
1022
1022
1022
1022
1022
1022
883
411
160
0
0
0
0
0
0
0
0
0
0
1021
1022
1022
1022
1022
1022
1023
829
371
127
0
0
0
0
0
0
0
0
0
0
843
1023
1022
1022
1022
1022
1022
777
336
107
0
0
0
0
0
0
0
0
0
3
1022
1023
1022
1022
1022
1022
1022
837
387
146
0
0
0
0
0
0
0
0
0
0
935
1022
1022
1022
1022
1022
1022
689
278
66
0
0
0
0
0
0
0
0
0
146
1022
1022
1023
1022
1022
1022
1022
887
429
180
0
0
0
0
0
0
0
0
0
0
1019
1022
1022
1023
1022
1022
1023
777
348
117
0
0
0
0
0
0
0
0
0
257
1022
1022
1022
1022
1022
1022
1022
851
407
159
0
0
0
0
0
0
0
0
0
0
987
1022
1022
1022
1022
1022
1023
719
311
87
0
0
0
0
0
0
0
0
0
0
1022
1022
1022
1022
1022
1022
1022
747
336
108
0
0
0
0
0
0
0
0
0
393
1022
1022
1022
1022
1023
1023
1022
838
409
160
0
0
0
0
0
0
0
0
0
106
1022
1022
1022
1022
1022
1022
1022
731
331
103
0
0
0
0
0
0
0
0
0
207
1022
1022
1022
1022
1022
1022
1022
744
341
110
0
0
0
0
0
0
0
0
0
0
1019
1022
1022
1022
1022
1022
1022
675
289
71
0
0
0
0
0
0
0
0
0
424
1022
1022
1022
1022
1022
1022
1022
839
420
165
0
0
0
0
0
0
0
0
0
487
1022
1022
1022
1022
1022
1022
1022
838
420
159
0
0
0
0
0
0
0
0
0
317
1022
1022
1022
1022
1022
1023
1022
727
338
98
0
0
0
0
0
0
0
0
0
0
1022
1022
1022
1022
1022
1022
1022
653
288
62
0
0
0
0
0
0
0
0
0
185
1022
1022
1022
1022
1022
1022
1022
689
321
86
0
0
0
0
0
0
0
0
0
60
1022
1022
1022
1022
1023
1022
1022
642
287
62
0
0
0
0
0
0
0
0
0
438
1022
1022
1023
1022
1022
1022
1022
657
301
74
0
0
0
0
0
0
0
0
0
475
1022
1022
1022
1022
1022
1022
1022
733
363
116
0
0
0
0
0
0
0
0
0
537
1022
1022
1022
1022
1022
1022
1022
646
298
64
0
0
0
0
0
0
0
0
0
148
1022
1022
1023
1022
1022
1022
1023
598
268
43
0
0
0
0
0
0
0
0
0
163
1022
1022
1022
1022
1022
1022
1022
617
286
57
0
0
0
0
0
0
0
0
0
333
1023
1022
1022
1022
1023
1022
1022
582
262
40
0
0
0
0
0
0
0
0
0
411
1023
1022
1022
1022
1022
1023
1022
582
264
43
0
0
0
0
0
0
0
0
0
267
1023
1022
1022
1022
1022
1022
1022
516
216
7
0
0
0
0
0
0
0
0
0
675
1022
1022
1023
1022
1022
1022
1022
635
305
73
0
0
0
0
0
0
0
0
0
727
1022
1022
1023
1022
1022
1022
1022
671
337
92
0
0
0
0
0
0
0
0
0
812
1022
1022
1022
1022
1022
1022
1022
623
299
57
0
0
0
0
0
0
0
0
0
706
1022
1022
1022
1022
1022
1022
1022
599
281
46
0
0
0
0
0
0
0
0
0
745
1022
1022
1022
1022
1023
1023
1022
570
262
30
0
0
0
0
0
0
0
0
0
502
1022
1022
1022
1022
1022
1022
1022
519
224
3
0
0
0
0
0
0
0
0
0
539
1022
1022
1022
1023
1022
1022
1022
508
217
1
0
0
0
0
0
0
0
0
0
821
1022
1023
1023
1022
1022
1022
1022
548
249
20
0
0
0
0
0
0
0
0
0
567
1022
1022
1023
1022
1022
1022
1022
547
252
19
0
0
0
0
0
0
0
0
0
435
1022
1022
1023
1022
1023
1022
1021
468
194
0
0
0
0
0
0
0
0
0
0
765
1022
1022
1022
1022
1022
1023
1022
504
224
3
0
0
0
0
0
0
0
0
0
770
1022
1022
1022
1022
1022
1022
1022
542
253
21
0
0
0
0
0
0
0
0
0
981
1022
1022
1022
1022
1022
1022
1022
532
245
14
0
0
0
0
0
0
0
0
0
728
1022
1022
1022
1022
1022
1022
971
443
175
0
0
0
0
0
0
0
0
0
0
600
1022
1022
1023
1022
1022
1022
1019
470
195
0
0
0
0
0
0
0
0
0
0
771
1022
1022
1023
1022
1022
1022
1022
535
249
15
0
0
0
0
0
0
0
0
0
751
1022
1023
1023
1022
1022
1023
1015
467
199
0
0
0
0
0
0
0
0
0
0
893
1022
1022
1022
1022
1022
1022
1022
491
217
0
0
0
0
0
0
0
0
0
0
933
1022
1022
1023
1022
1022
1022
1022
564
270
30
0
0
0
0
0
0
0
0
0
641
1022
1022
1022
1022
1022
1022
893
399
148
0
0
0
0
0
0
0
0
0
148
1022
1023
1022
1023
1022
1022
1023
1022
602
298
49
0
0
0
0
0
0
0
0
195
1023
1022
1022
1023
1022
1022
1023
1022
624
310
55
0
0
0
0
0
0
0
0
0
1021
1022
1022
1023
1022
1022
1022
968
455
182
0
0
0
0
0
0
0
0
0
104
1022
1022
1023
1023
1022
1022
1022
988
465
190
0
0
0
0
0
0
0
0
0
0
740
1023
1022
1023
1022
1022
1022
870
386
135
0
0
0
0
0
0
0
0
0
0
896
1022
1022
1023
1022
1022
1023
872
391
140
0
0
0
0
0
0
0
0
0
0
928
1022
1022
1022
1022
1022
1022
890
405
152
0
0
0
0
0
0
0
0
0
0
972
1023
1022
1023
1022
1022
1022
862
385
140
0
0
0
0
0
0
0
0
0
74
1022
1023
1022
1023
1022
1022
1023
847
377
131
0
0
0
0
0
0
0
0
0
0
814
1022
1023
1022
1022
1022
1023
819
359
118
0
0
0
0
0
0
0
0
0
0
952
1023
1022
1023
1022
1022
1023
827
370
130
0
0
0
0
0
0
0
0
0
0
1022
1022
1022
1023
1022
1022
1023
862
397
150
0
0
0
0
0
0
0
0
0
290
1022
1022
1022
1023
1022
1022
1022
959
469
204
0
0
0
0
0
0
0
0
0
0
951
1022
1022
1023
1022
1022
1022
798
350
115
0
0
0
0
0
0
0
0
0
0
952
1022
1022
1022
1022
1023
1022
758
323
96
0
0
0
0
0
0
0
0
0
0
1014
1022
1022
1023
1022
1022
1022
793
355
120
0
0
0
0
0
0
0
0
0
206
1022
1022
1022
1023
1023
1022
1022
822
379
137
0
0
0
0
0
0
0
0
0
70
1022
1022
1022
1023
1022
1022
1022
811
374
133
0
0
0
0
0
0
0
0
0
241
1022
1023
1022
1022
1022
1022
1023
790
361
123
0
0
0
0
0
0
0
0
0
180
1022
1023
1022
1023
1022
1022
1023
824
389
145
0
0
0
0
0
0
0
0
0
0
1021
1023
1022
1022
1022
1022
1023
696
291
71
0
0
0
0
0
0
0
0
0
266
1022
1023
1022
1023
1022
1022
1023
692
289
69
0
0
0
0
0
0
0
0
0
217
1022
1022
1022
1023
1022
1022
1023
723
319
89
0
0
0
0
0
0
0
0
0
146
1022
1023
1022
1023
1022
1022
1023
668
281
57
0
0
0
0
0
0
0
0
0
471
1022
1022
1022
1023
1022
1022
1022
790
375
131
0
0
0
0
0
0
0
0
0
342
1022
1022
1022
1023
1022
1022
1023
680
297
71
0
0
0
0
0
0
0
0
0
170
1022
1022
1023
1023
1022
1023
1022
686
306
77
0
0
0
0
0
0
0
0
0
338
1022
1023
1022
1023
1022
1023
1022
711
325
92
0
0
0
0
0
0
0
0
0
441
1022
1023
1022
1023
1022
1022
1022
673
298
71
0
0
0
0
0
0
0
0
0
428
1022
1022
1022
1023
1022
1022
1022
709
329
91
0
0
0
0
0
0
0
0
0
184
1022
1022
1022
1023
1022
1022
1022
588
241
24
0
0
0
0
0
0
0
0
0
231
1022
1022
1022
1023
1022
1023
1022
564
230
19
0
0
0
0
0
0
0
0
0
415
1023
1023
1022
1023
1022
1022
1022
617
275
51
0
0
0
0
0
0
0
0
0
583
1022
1022
1022
1023
1022
1023
1022
752
379
130
0
0
0
0
0
0
0
0
0
452
1023
1022
1022
1023
1022
1022
1022
589
257
39
0
0
0
0
0
0
0
0
0
361
1023
1022
1022
1023
1022
1022
1022
632
289
62
0
0
0
0
0
0
0
0
0
518
1022
1023
1022
1022
1022
1022
1023
592
264
43
0
0
0
0
0
0
0
0
0
456
1023
1023
1022
1023
1022
1022
1023
585
261
37
0
0
0
0
0
0
0
0
0
648
1023
1023
1022
1023
1022
1022
1022
614
285
51
0
0
0
0
0
0
0
0
0
448
1023
1023
1022
1022
1022
1023
1022
559
246
24
0
0
0
0
0
0
0
0
0
409
1022
1023
1022
1023
1022
1022
1023
527
227
12
0
0
0
0
0
0
0
0
0
541
1023
1022
1023
1023
1022
1022
1023
538
236
17
0
0
0
0
0
0
0
0
0
696
1022
1023
1022
1023
1022
1022
1022
622
297
63
0
0
0
0
0
0
0
0
0
669
1022
1022
1022
1023
1022
1022
1022
558
253
28
0
0
0
0
0
0
0
0
0
903
1022
1023
1022
1023
1022
1022
1022
642
317
72
0
0
0
0
0
0
0
0
0
898
1022
1022
1022
1022
1022
1022
1022
688
352
96
0
0
0
0
0
0
0
0
0
535
1022
1022
1023
1023
1023
1022
1022
435
161
0
0
0
0
0
0
0
0
0
0
652
1022
1022
1022
1023
1022
1022
1022
504
218
0
0
0
0
0
0
0
0
0
0
742
1022
1023
1022
1023
1022
1022
1022
509
224
3
0
0
0
0
0
0
0
0
0
675
1022
1023
1022
1023
1022
1022
974
407
144
0
0
0
0
0
0
0
0
0
0
649
1022
1023
1022
1023
1022
1022
1022
471
194
0
0
0
0
0
0
0
0
0
0
846
1022
1023
1022
1022
1022
1022
1022
524
240
12
0
0
0
0
0
0
0
0
0
842
1022
1023
1022
1022
1022
1022
1022
499
222
0
0
0
0
0
0
0
0
0
0
915
1022
1022
1022
1023
1022
1022
1022
496
221
0
0
0
0
0
0
0
0
0
0
1005
1022
1022
1022
1023
1022
1022
1022
520
239
8
0
0
0
0
0
0
0
0
0
907
1022
1023
1022
1023
1022
1022
1022
457
192
0
0
0
0
0
0
0
0
0
0
935
1022
1023
1022
1023
1022
1022
1022
490
216
0
0
0
0
0
0
0
0
0
0
768
1022
1023
1022
1023
1022
1022
891
371
124
0
0
0
0
0
0
0
0
0
0
988
1022
1022
1022
1023
1022
1022
1022
492
220
0
0
0
0
0
0
0
0
0
0
897
1022
1022
1022
1023
1022
1022
927
409
155
0
0
0
0
0
0
0
0
0
0
883
1022
1022
1022
1022
1022
1022
908
398
148
0
0
0
0
0
0
0
0
0
0
960
1022
1023
1022
1022
1022
1022
926
416
164
0
0
0
0
0
0
0
0
0
0
1014
1022
1023
1022
1023
1022
1022
910
401
153
0
0
0
0
0
0
0
0
0
0
881
1022
1022
1022
1023
1022
1022
933
422
172
0
0
0
0
0
0
0
0
0
0
837
1023
1022
1022
1023
1022
1022
820
346
113
0
0
0
0
0
0
0
0
0
0
1017
1022
1022
1022
1023
1022
1022
905
412
159
0
0
0
0
0
0
0
0
0
0
1022
1022
1022
1022
1023
1022
1022
1009
473
211
0
0
0
0
0
0
0
0
0
0
990
1022
1023
1022
1023
1022
1022
827
359
124
0
0
0
0
0
0
0
0
0
0
966
1022
1022
1022
1023
1022
1022
865
391
149
0
0
0
0
0
0
0
0
0
0
933
1022
1022
1022
1023
1022
1022
840
372
138
0
0
0
0
0
0
0
0
0
0
1023
1022
1022
1022
1023
1022
1023
928
443
191
0
0
0
0
0
0
0
0
0
0
924
1022
1022
1022
1023
1022
1022
833
374
135
0
0
0
0
0
0
0
0
0
0
1001
1022
1023
1022
1023
1022
1022
786
341
111
0
0
0
0
0
0
0
0
0
0
985
1022
1023
1022
1023
1022
1022
881
418
170
0
0
0
0
0
0
0
0
0
0
1020
1023
1023
1022
1023
1022
1022
812
369
135
0
0
0
0
0
0
0
0
0
0
1020
1023
1023
1022
1023
1022
1023
725
309
91
0
0
0
0
0
0
0
0
0
0
1022
1022
1023
1022
1023
1022
1022
813
376
141
0
0
0
0
0
0
0
0
0
243
1022
1022
1023
1022
1022
1022
1023
787
356
126
0
0
0
0
0
0
0
0
0
343
1022
1022
1022
1022
1023
1022
1022
825
389
146
0
0
0
0
0
0
0
0
0
246
1022
1022
1023
1022
1023
1022
1022
773
353
113
0
0
0
0
0
0
0
0
0
0
1022
1022
1023
1022
1022
1022
1022
736
331
98
0
0
0
0
0
0
0
0
0
1
1022
1022
1022
1022
1023
1023
1022
755
348
113
0
0
0
0
0
0
0
0
0
705
1022
1022
1022
1022
1023
1022
1022
1022
563
271
15
0
0
0
0
0
0
0
0
213
1022
1022
1022
1022
1023
1022
1022
703
309
78
0
0
0
0
0
0
0
0
0
224
1022
1022
1023
1022
1022
1022
1022
728
332
96
0
0
0
0
0
0
0
0
0
68
1022
1022
1023
1022
1023
1022
1022
636
269
46
0
0
0
0
0
0
0
0
0
375
1022
1022
1022
1022
1023
1022
1022
731
345
101
0
0
0
0
0
0
0
0
0
372
1022
1022
1023
1022
1023
1022
1023
716
337
96
0
0
0
0
0
0
0
0
0
285
1022
1022
1023
1022
1023
1022
1022
601
255
33
0
0
0
0
0
0
0
0
0
199
1022
1023
1023
1022
1023
1022
1022
636
286
56
0
0
0
0
0
0
0
0
0
386
1022
1022
1022
1022
1023
1022
1022
680
323
84
0
0
0
0
0
0
0
0
0
207
1022
1022
1022
1022
1023
1022
1022
591
257
35
0
0
0
0
0
0
0
0
0
213
1022
1022
1023
1022
1023
1022
1022
584
252
33
0
0
0
0
0
0
0
0
0
447
1022
1022
1023
1022
1022
1022
1022
596
270
44
0
0
0
0
0
0
0
0
0
306
1023
1022
1023
1022
1023
1022
1022
613
286
51
0
0
0
0
0
0
0
0
0
471
1023
1022
1023
1022
1023
1022
1022
558
246
23
0
0
0
0
0
0
0
0
0
366
1022
1022
1022
1022
1023
1022
1022
589
273
44
0
0
0
0
0
0
0
0
0
577
1022
1022
1022
1022
1022
1022
1023
625
302
65
0
0
0
0
0
0
0
0
0
799
1022
1022
1023
1022
1022
1022
1022
657
325
80
0
0
0
0
0
0
0
0
0
427
1022
1022
1023
1022
1023
1022
1022
559
251
25
0
0
0
0
0
0
0
0
0
364
1022
1022
1023
1022
1023
1022
1022
518
226
7
0
0
0
0
0
0
0
0
0
436
1022
1022
1022
1022
1022
1022
1022
511
222
2
0
0
0
0
0
0
0
0
0
473
1022
1023
1022
1022
1023
1022
1022
550
256
28
0
0
0
0
0
0
0
0
0
507
1022
1022
1023
1022
1023
1022
1022
535
247
21
0
0
0
0
0
0
0
0
0
529
1022
1022
1023
1022
1023
1022
1022
511
230
9
0
0
0
0
0
0
0
0
0
625
1022
1022
1022
1022
1023
1022
1022
544
255
26
0
0
0
0
0
0
0
0
0
522
1022
1022
1022
1022
1023
1022
1022
502
221
3
0
0
0
0
0
0
0
0
0
722
1022
1022
1022
1022
1023
1022
1022
535
248
19
0
0
0
0
0
0
0
0
0
846
1022
1023
1022
1022
1023
1022
1022
554
263
26
0
0
0
0
0
0
0
0
0
646
1022
1023
1022
1022
1023
1023
1018
463
195
0
0
0
0
0
0
0
0
0
0
711
1022
1022
1022
1022
1023
1022
1022
503
229
4
0
0
0
0
0
0
0
0
0
832
1022
1023
1023
1022
1023
1022
1022
534
253
19
0
0
0
0
0
0
0
0
0
686
1022
1022
1023
1022
1023
1022
1022
485
215
0
0
0
0
0
0
0
0
0
0
826
1022
1022
1022
1022
1023
1022
1022
521
240
10
0
0
0
0
0
0
0
0
0
683
1022
1022
1022
1022
1023
1022
924
424
167
0
0
0
0
0
0
0
0
0
0
894
1022
1022
1022
1022
1023
1022
926
428
171
0
0
0
0
0
0
0
0
0
0
1022
1022
1022
1023
1022
1023
1022
1022
511
235
4
0
0
0
0
0
0
0
0
0
887
1022
1022
1023
1022
1023
1022
896
408
158
0
0
0
0
0
0
0
0
0
25
1022
1022
1022
1022
1022
1023
1022
1022
531
251
13
0
0
0
0
0
0
0
0
0
812
1022
1022
1022
1022
1023
1022
964
454
193
0
0
0
0
0
0
0
0
0
50
1023
1022
1022
1022
1022
1023
1022
959
457
194
0
0
0
0
0
0
0
0
0
0
829
1022
1022
1022
1022
1023
1022
843
373
127
0
0
0
0
0
0
0
0
0
78
1022
1022
1022
1023
1022
1023
1022
896
415
162
0
0
0
0
0
0
0
0
0
18
1022
1022
1022
1022
1022
1023
1022
916
434
177
0
0
0
0
0
0
0
0
0
0
877
1022
1022
1022
1022
1023
1022
857
392
147
0
0
0
0
0
0
0
0
0
0
899
1022
1022
1023
1022
1023
1022
772
329
102
0
0
0
0
0
0
0
0
0
0
1014
1022
1022
1023
1022
1023
1022
839
383
142
0
0
0
0
0
0
0
0
0
0
921
1022
1022
1022
1022
1023
1022
788
347
114
0
0
0
0
0
0
0
0
0
0
1022
1022
1022
1023
1022
1023
1022
823
380
138
0
0
0
0
0
0
0
0
0
183
1023
1022
1023
1023
1022
1023
1022
938
469
206
0
0
0
0
0
0
0
0
0
283
1023
1022
1023
1023
1022
1023
1022
856
410
159
0
0
0
0
0
0
0
0
0
0
994
1022
1022
1022
1022
1023
1022
708
300
79
0
0
0
0
0
0
0
0
0
139
1022
1022
1022
1023
1022
1023
1022
797
369
130
0
0
0
0
0
0
0
0
0
323
1023
1022
1022
1022
1023
1022
1022
790
362
123
0
0
0
0
0
0
0
0
0
34
1022
1022
1023
1023
1022
1022
1022
698
300
73
0
0
0
0
0
0
0
0
0
92
1023
1022
1022
1022
1022
1023
1022
730
328
93
0
0
0
0
0
0
0
0
0
247
1023
1022
1023
1023
1022
1023
1022
729
330
94
0
0
0
0
0
0
0
0
0
186
1023
1022
1023
1023
1022
1023
1022
736
342
103
0
0
0
0
0
0
0
0
0
342
1023
1022
1023
1023
1022
1023
1022
760
364
119
0
0
0
0
0
0
0
0
0
110
1022
1022
1023
1023
1022
1023
1022
681
303
72
0
0
0
0
0
0
0
0
0
315
1022
1022
1022
1022
1022
1023
1022
691
315
83
0
0
0
0
0
0
0
0
0
171
1023
1022
1022
1022
1022
1023
1022
594
246
28
0
0
0
0
0
0
0
0
0
371
1023
1022
1022
1023
1022
1023
1022
706
333
93
0
0
0
0
0
0
0
0
0
436
1023
1022
1022
1022
1022
1023
1022
741
364
115
0
0
0
0
0
0
0
0
0
336
1023
1022
1022
1022
1022
1022
1022
669
313
75
0
0
0
0
0
0
0
0
0
145
1022
1022
1023
1022
1022
1023
1022
604
267
41
0
0
0
0
0
0
0
0
0
205
1022
1022
1023
1022
1022
1023
1022
574
248
28
0
0
0
0
0
0
0
0
0
263
1023
1022
1022
1023
1022
1023
1022
608
275
48
0
0
0
0
0
0
0
0
0
455
1023
1022
1023
1023
1022
1023
1022
616
282
54
0
0
0
0
0
0
0
0
0
441
1023
1022
1022
1023
1022
1023
1022
618
289
55
0
0
0
0
0
0
0
0
0
413
1022
1022
1022
1022
1022
1022
1022
605
282
46
0
0
0
0
0
0
0
0
0
334
1023
1022
1022
1022
1022
1023
1022
559
250
27
0
0
0
0
0
0
0
0
0
416
1022
1022
1023
1022
1022
1023
1022
518
222
7
0
0
0
0
0
0
0
0
0
571
1022
1022
1022
1022
1022
1023
1022
613
295
57
0
0
0
0
0
0
0
0
0
419
1022
1022
1022
1022
1022
1023
1022
510
216
3
0
0
0
0
0
0
0
0
0
438
1022
1022
1023
1022
1022
1023
1022
555
253
26
0
0
0
0
0
0
0
0
0
532
1023
1022
1022
1023
1022
1022
1022
528
236
12
0
0
0
0
0
0
0
0
0
494
1022
1022
1022
1023
1022
1022
1022
480
199
0
0
0
0
0
0
0
0
0
0
508
1022
1022
1022
1022
1022
1022
1022
481
206
0
0
0
0
0
0
0
0
0
0
483
1022
1022
1022
1022
1022
1023
981
438
175
0
0
0
0
0
0
0
0
0
0
596
1023
1022
1022
1022
1022
1023
1022
546
260
34
0
0
0
0
0
0
0
0
0
948
1023
1022
1023
1022
1022
1023
1022
647
331
86
0
0
0
0
0
0
0
0
0
553
1023
1022
1023
1023
1022
1022
1014
454
182
0
0
0
0
0
0
0
0
0
0
634
1022
1022
1022
1023
1022
1022
1022
497
220
1
0
0
0
0
0
0
0
0
0
648
1023
1022
1023
1023
1022
1023
941
425
167
0
0
0
0
0
0
0
0
0
0
554
1022
1022
1023
1023
1022
1022
967
446
184
0
0
0
0
0
0
0
0
0
0
899
1023
1022
1023
1022
1022
1023
1022
533
251
20
0
0
0
0
0
0
0
0
0
644
1023
1022
1022
1023
1022
1022
935
424
169
0
0
0
0
0
0
0
0
0
0
686
1023
1022
1023
1022
1022
1023
873
381
134
0
0
0
0
0
0
0
0
0
0
668
1023
1022
1023
1022
1022
1023
906
412
159
0
0
0
0
0
0
0
0
0
0
640
1023
1022
1023
1022
1022
1022
857
377
135
0
0
0
0
0
0
0
0
0
0
989
1022
1022
1022
1023
1022
1023
945
443
185
0
0
0
0
0
0
0
0
0
0
803
1022
1022
1022
1023
1022
1023
1018
481
216
0
0
0
0
0
0
0
0
0
0
952
1022
1022
1023
1022
1022
1023
922
428
178
0
0
0
0
0
0
0
0
0
0
735
1022
1022
1022
1023
1022
1022
877
391
150
0
0
0
0
0
0
0
0
0
0
719
1023
1022
1023
1022
1022
1022
857
379
142
0
0
0
0
0
0
0
0
0
0
766
1022
1022
1022
1022
1022
1022
821
355
124
0
0
0
0
0
0
0
0
0
0
761
1022
1022
1023
1022
1022
1022
740
296
79
0
0
0
0
0
0
0
0
0
0
926
1022
1022
1023
1022
1022
1023
834
371
142
0
0
0
0
0
0
0
0
0
0
812
1022
1022
1023
1022
1022
1023
815
363
139
0
0
0
0
0
0
0
0
0
0
953
1022
1022
1023
1022
1022
1022
814
364
140
0
0
0
0
0
0
0
0
0
0
877
1022
1022
1022
1022
1022
1022
808
361
140
0
0
0
0
0
0
0
0
0
0
990
1022
1022
1023
1022
1022
1022
836
387
157
0
0
0
0
0
0
0
0
0
146
1022
1022
1022
1022
1022
1022
1022
1009
498
238
13
0
0
0
0
0
0
0
0
241
1022
1022
1022
1023
1022
1022
1022
917
452
202
0
0
0
0
0
0
0
0
0
0
935
1022
1022
1023
1022
1022
1022
732
313
95
0
0
0
0
0
0
0
0
0
0
958
1023
1022
1023
1023
1022
1022
746
330
109
0
0
0
0
0
0
0
0
0
0
1012
1022
1022
1023
1022
1022
1022
715
310
96
0
0
0
0
0
0
0
0
0
0
1022
1022
1022
1022
1022
1022
1022
767
352
129
0
0
0
0
0
0
0
0
0
0
1022
1022
1022
1022
1023
1022
1022
714
313
101
0
0
0
0
0
0
0
0
0
0
1017
1022
1022
1022
1022
1022
1022
729
332
111
0
0
0
0
0
0
0
0
0
0
1021
1023
1022
1022
1022
1022
1022
641
271
63
0
0
0
0
0
0
0
0
0
163
1022
1023
1023
1022
1022
1022
1022
695
316
99
0
0
0
0
0
0
0
0
0
0
1022
1022
1022
1023
1023
1022
1022
667
298
86
0
0
0
0
0
0
0
0
0
56
1022
1022
1022
1023
1022
1022
1022
639
284
76
0
0
0
0
0
0
0
0
0
97
1022
1022
1022
1023
1022
1022
1022
657
300
88
0
0
0
0
0
0
0
0
0
217
1022
1022
1022
1022
1023
1022
1022
657
302
90
0
0
0
0
0
0
0
0
0
78
1022
1022
1022
1022
1022
1022
1022
602
265
59
0
0
0
0
0
0
0
0
0
120
1022
1022
1023
1022
1022
1022
1022
595
265
56
0
0
0
0
0
0
0
0
0
186
1022
1022
1022
1022
1022
1022
1022
630
296
81
0
0
0
0
0
0
0
0
0
156
1022
1022
1022
1022
1022
1022
1022
622
294
80
0
0
0
0
0
0
0
0
0
214
1022
1022
1022
1023
1022
1022
1022
598
277
68
0
0
0
0
0
0
0
0
0
233
1023
1023
1022
1023
1022
1022
1022
547
244
42
0
0
0
0
0
0
0
0
0
248
1022
1022
1022
1023
1022
1022
1022
627
304
88
0
0
0
0
0
0
0
0
0
335
1022
1022
1022
1023
1022
1022
1022
599
284
70
0
0
0
0
0
0
0
0
0
273
1022
1022
1022
1022
1022
1022
1022
558
257
46
0
0
0
0
0
0
0
0
0
321
1022
1022
1022
1023
1022
1022
1022
525
234
26
0
0
0
0
0
0
0
0
0
337
1022
1022
1022
1022
1023
1022
1022
551
257
46
0
0
0
0
0
0
0
0
0
401
1022
1022
1022
1022
1022
1022
1022
561
268
54
0
0
0
0
0
0
0
0
0
398
1022
1022
1022
1023
1022
1022
1022
504
226
22
0
0
0
0
0
0
0
0
0
396
1022
1022
1022
1023
1022
1022
1022
512
231
26
0
0
0
0
0
0
0
0
0
417
1022
1022
1022
1023
1022
1022
1022
466
199
2
0
0
0
0
0
0
0
0
0
454
1022
1022
1022
1022
1022
1022
1022
478
211
9
0
0
0
0
0
0
0
0
0
492
1022
1022
1022
1023
1023
1022
1022
497
227
19
0
0
0
0
0
0
0
0
0
510
1022
1022
1023
1022
1022
1022
978
430
178
0
0
0
0
0
0
0
0
0
0
536
1022
1022
1022
1022
1022
1022
1021
461
201
3
0
0
0
0
0
0
0
0
0
569
1022
1022
1022
1022
1022
1022
977
429
181
0
0
0
0
0
0
0
0
0
0
598
1022
1022
1022
1022
1022
1022
930
407
164
0
0
0
0
0
0
0
0
0
0
603
1022
1022
1022
1022
1022
1022
944
417
170
0
0
0
0
0
0
0
0
0
0
649
1022
1022
1022
1022
1022
1022
944
420
177
0
0
0
0
0
0
0
0
0
0
684
1022
1022
1022
1022
1022
1022
929
411
169
0
0
0
0
0
0
0
0
0
0
684
1022
1022
1022
1023
1022
1022
942
423
179
0
0
0
0
0
0
0
0
0
0
713
1022
1022
1022
1023
1022
1022
943
424
182
0
0
0
0
0
0
0
0
0
0
742
1022
1022
1022
1023
1022
1022
941
424
181
0
0
0
0
0
0
0
0
0
0
745
1022
1022
1022
1022
1023
1022
915
409
168
0
0
0
0
0
0
0
0
0
0
760
1022
1022
1022
1022
1022
1022
894
393
155
0
0
0
0
0
0
0
0
0
0
781
1022
1022
1022
1023
1022
1022
880
387
154
0
0
0
0
0
0
0
0
0
0
809
1022
1022
1022
1022
1023
1022
904
408
170
0
0
0
0
0
0
0
0
0
0
823
1022
1022
1022
1022
1022
1022
857
375
147
0
0
0
0
0
0
0
0
0
0
836
1022
1022
1022
1022
1023
1022
782
317
105
0
0
0
0
0
0
0
0
0
0
864
1022
1022
1022
1023
1022
1022
832
355
134
0
0
0
0
0
0
0
0
0
0
883
1022
1022
1022
1022
1022
1022
814
348
129
0
0
0
0
0
0
0
0
0
0
891
1022
1022
1022
1023
1022
1022
819
354
130
0
0
0
0
0
0
0
0
0
0
923
1022
1022
1022
1022
1022
1022
756
311
102
0
0
0
0
0
0
0
0
0
0
951
1022
1022
1023
1022
1022
1022
690
263
65
0
0
0
0
0
0
0
0
0
0
977
1022
1022
1022
1022
1022
1022
770
331
118
0
0
0
0
0
0
0
0
0
0
972
1022
1022
1022
1023
1022
1022
770
332
117
0
0
0
0
0
0
0
0
0
0
997
1022
1022
1022
1022
1022
1022
759
326
115
0
0
0
0
0
0
0
0
0
0
1015
1022
1022
1022
1022
1023
1022
728
309
101
0
0
0
0
0
0
0
0
0
0
1016
1022
1022
1022
1023
1022
1022
746
326
111
0
0
0
0
0
0
0
0
0
0
1021
1022
1022
1022
1023
1022
1022
687
286
81
0
0
0
0
0
0
0
0
0
0
1022
1022
1022
1022
1023
1022
1022
684
288
83
0
0
0
0
0
0
0
0
0
0
1022
1022
1022
1022
1023
1023
1022
636
257
60
0
0
0
0
0
0
0
0
0
0
1022
1022
1022
1022
1023
1022
1022
643
268
68
0
0
0
0
0
0
0
0
0
0
1023
1022
1022
1023
1023
1022
1022
654
275
73
0
0
0
0
0
0
0
0
0
28
1022
1022
1022
1022
1022
1023
1022
704
316
103
0
0
0
0
0
0
0
0
0
76
1022
1022
1022
1022
1022
1023
1022
623
263
59
0
0
0
0
0
0
0
0
0
83
1023
1022
1022
1022
1022
1023
1022
613
259
53
0
0
0
0
0
0
0
0
0
119
1022
1022
1022
1022
1023
1022
1022
634
279
71
0
0
0
0
0
0
0
0
0
153
1022
1022
1022
1022
1022
1023
1022
603
261
55
0
0
0
0
0
0
0
0
0
182
1022
1022
1022
1023
1023
1022
1022
612
271
62
0
0
0
0
0
0
0
0
0
214
1023
1022
1022
1022
1022
1022
1022
555
231
33
0
0
0
0
0
0
0
0
0
221
1023
1022
1022
1022
1023
1023
1022
583
255
49
0
0
0
0
0
0
0
0
0
227
1023
1022
1022
1022
1023
1023
1022
455
163
0
0
0
0
0
0
0
0
0
0
294
1023
1022
1022
1022
1023
1023
1022
576
259
51
0
0
0
0
0
0
0
0
0
307
1023
1022
1022
1022
1023
1023
1022
564
255
46
0
0
0
0
0
0
0
0
0
336
1023
1022
1022
1022
1023
1022
1022
537
237
33
0
0
0
0
0
0
0
0
0
366
1022
1022
1022
1022
1023
1022
1022
533
236
31
0
0
0
0
0
0
0
0
0
367
1022
1022
1022
1022
1023
1022
1022
501
212
14
0
0
0
0
0
0
0
0
0
404
1022
1022
1022
1022
1022
1022
1022
536
237
32
0
0
0
0
0
0
0
0
0
432
1022
1022
1022
1022
1022
1022
1022
502
216
12
0
0
0
0
0
0
0
0
0
451
1023
1022
1022
1023
1022
1023
1022
490
209
4
0
0
0
0
0
0
0
0
0
489
1022
1022
1022
1022
1023
1023
1022
463
190
0
0
0
0
0
0
0
0
0
0
505
1022
1022
1022
1022
1022
1023
1020
441
176
0
0
0
0
0
0
0
0
0
0
528
1022
1022
1022
1022
1023
1022
1021
455
191
0
0
0
0
0
0
0
0
0
0
555
1022
1022
1022
1023
1023
1022
1022
479
207
4
0
0
0
0
0
0
0
0
0
558
1022
1022
1022
1022
1023
1022
1020
447
185
0
0
0
0
0
0
0
0
0
0
582
1022
1022
1022
1022
1023
1022
1019
449
189
0
0
0
0
0
0
0
0
0
0
613
1022
1022
1022
1022
1023
1022
910
387
142
0
0
0
0
0
0
0
0
0
0
617
1023
1022
1022
1022
1023
1023
970
431
181
0
0
0
0
0
0
0
0
0
0
669
1022
1022
1022
1022
1022
1023
929
409
164
0
0
0
0
0
0
0
0
0
0
692
1022
1022
1022
1022
1023
1023
891
383
145
0
0
0
0
0
0
0
0
0
0
703
1022
1022
1022
1022
1023
1022
898
385
147
0
0
0
0
0
0
0
0
0
0
731
1023
1022
1022
1022
1022
1023
862
364
131
0
0
0
0
0
0
0
0
0
0
747
1022
1022
1022
1022
1023
1023
881
384
144
0
0
0
0
0
0
0
0
0
0
777
1022
1022
1022
1022
1023
1022
875
380
145
0
0
0
0
0
0
0
0
0
0
807
1022
1022
1022
1022
1023
1022
853
367
138
0
0
0
0
0
0
0
0
0
0
817
1022
1022
1022
1022
1023
1022
825
348
124
0
0
0
0
0
0
0
0
0
0
845
1022
1022
1022
1022
1023
1022
898
405
169
0
0
0
0
0
0
0
0
0
0
867
1022
1022
1022
1022
1022
1022
837
359
133
0
0
0
0
0
0
0
0
0
0
873
1023
1022
1022
1022
1022
1023
844
367
140
0
0
0
0
0
0
0
0
0
0
901
1023
1022
1022
1022
1023
1023
738
291
82
0
0
0
0
0
0
0
0
0
0
927
1023
1022
1022
1022
1022
1023
781
331
112
0
0
0
0
0
0
0
0
0
0
942
1023
1022
1022
1022
1022
1023
801
351
129
0
0
0
0
0
0
0
0
0
0
974
1023
1022
1022
1022
1023
1023
752
316
103
0
0
0
0
0
0
0
0
0
0
993
1022
1022
1022
1022
1023
1023
742
309
97
0
0
0
0
0
0
0
0
0
0
1006
1022
1022
1022
1023
1023
1023
719
294
89
0
0
0
0
0
0
0
0
0
0
1016
1023
1022
1022
1023
1023
1023
671
265
63
0
0
0
0
0
0
0
0
0
0
1020
1022
1022
1022
1023
1022
1023
670
269
63
0
0
0
0
0
0
0
0
0
0
1022
1023
1022
1022
1022
1022
1022
629
244
47
0
0
0
0
0
0
0
0
0
0
1022
1022
1022
1022
1023
1023
1023
640
259
59
0
0
0
0
0
0
0
0
0
0
1022
1022
1022
1022
1022
1023
1022
666
285
78
0
0
0
0
0
0
0
0
0
46
1022
1022
1022
1022
1022
1023
1023
639
267
63
0
0
0
0
0
0
0
0
0
65
1022
1022
1022
1022
1022
1022
1023
633
265
63
0
0
0
0
0
0
0
0
0
75
1022
1023
1022
1022
1022
1022
1022
614
258
54
0
0
0
0
0
0
0
0
0
113
1022
1022
1022
1022
1022
1022
1023
629
273
64
0
0
0
0
0
0
0
0
0
150
1022
1022
1022
1022
1022
1022
1022
600
256
51
0
0
0
0
0
0
0
0
0
163
1022
1023
1022
1022
1022
1022
1022
551
224
28
0
0
0
0
0
0
0
0
0
193
1023
1022
1022
1022
1022
1023
1022
611
273
64
0
0
0
0
0
0
0
0
0
226
1022
1022
1022
1022
1022
1023
1022
579
254
47
0
0
0
0
0
0
0
0
0
238
1023
1023
1022
1022
1022
1023
1022
505
199
8
0
0
0
0
0
0
0
0
0
284
1023
1023
1022
1022
1022
1023
1023
500
196
6
0
0
0
0
0
0
0
0
0
299
1022
1023
1022
1022
1022
1022
1022
526
224
23
0
0
0
0
0
0
0
0
0
325
1023
1022
1022
1022
1022
1022
1023
575
263
48
0
0
0
0
0
0
0
0
0
360
1022
1023
1022
1022
1022
1022
1023
530
231
24
0
0
0
0
0
0
0
0
0
377
1022
1022
1022
1022
1022
1023
1022
504
214
12
0
0
0
0
0
0
0
0
0
414
1022
1023
1022
1022
1022
1022
1022
496
211
11
0
0
0
0
0
0
0
0
0
432
1022
1023
1022
1022
1022
1023
1022
462
185
0
0
0
0
0
0
0
0
0
0
429
1022
1022
1022
1022
1022
1023
1022
485
207
7
0
0
0
0
0
0
0
0
0
473
1022
1023
1022
1022
1022
1023
1022
482
208
6
0
0
0
0
0
0
0
0
0
498
1023
1022
1022
1022
1023
1023
1019
439
174
0
0
0
0
0
0
0
0
0
0
520
1022
1022
1022
1022
1022
1022
1022
468
201
1
0
0
0
0
0
0
0
0
0
553
1022
1023
1022
1023
1022
1022
963
416
163
0
0
0
0
0
0
0
0
0
0
578
1022
1022
1022
1022
1022
1022
990
430
177
0
0
0
0
0
0
0
0
0
0
602
1022
1022
1022
1022
1022
1022
987
434
178
0
0
0
0
0
0
0
0
0
0
628
1023
1022
1022
1022
