605
582
559
537
527
521
527
544
566
593
604
608
610
609
611
609
611
614
616
618
600
577
554
535
524
518
523
539
560
587
598
602
604
605
607
608
610
613
614
615
598
573
549
529
517
510
513
527
550
575
586
590
590
588
590
589
591
593
595
596
579
555
530
508
496
489
494
509
529
556
568
571
572
570
570
568
570
572
573
574
557
532
508
485
473
465
470
484
505
531
543
545
545
544
544
544
546
548
550
551
535
510
486
464
452
445
449
464
486
511
523
527
529
528
529
528
530
532
534
536
520
497
473
451
440
435
441
455
478
504
516
521
524
523
526
526
528
532
534
537
523
500
477
457
446
439
445
460
482
508
519
525
527
527
528
528
530
533
536
538
523
500
476
456
444
439
443
458
480
507
519
524
526
527
530
531
533
537
539
542
527
505
481
462
451
445
451
467
489
515
527
532
535
535
537
538
539
541
544
547
532
509
486
466
454
448
452
467
489
514
526
532
533
534
536
536
538
541
543
547
532
510
486
465
452
445
451
466
487
514
528
532
535
534
536
536
539
540
543
545
531
508
483
463
451
445
449
465
488
514
527
532
535
534
536
535
536
539
540
542
527
504
480
459
447
440
443
458
480
507
520
524
526
525
526
526
527
530
533
536
523
500
476
455
444
437
440
455
476
502
516
521
523
524
526
527
528
531
533
536
521
497
472
450
437
430
433
447
468
495
510
514
515
516
518
518
520
524
526
530
518
495
472
450
438
432
435
451
474
502
516
521
523
523
524
525
526
529
531
535
521
497
472
451
439
433
436
451
475
503
519
523
526
527
528
528
531
534
536
539
525
501
476
455
441
434
437
451
473
501
516
522
524
525
526
527
528
531
534
538
524
501
475
455
441
434
436
451
472
499
515
520
522
521
522
521
524
527
531
535
522
499
474
451
438
431
434
449
472
500
515
520
521
522
523
524
526
529
532
537
525
502
477
455
441
434
438
453
475
505
523
529
532
531
533
532
535
539
540
544
531
506
481
458
444
438
440
455
478
507
524
530
533
533
535
535
538
542
544
548
536
512
487
465
451
444
447
462
483
512
528
534
537
536
538
540
540
544
546
548
537
513
489
467
454
447
451
465
488
515
533
540
542
542
544
544
546
550
553
558
547
524
501
479
467
462
463
478
502
531
548
555
558
559
561
563
566
568
572
576
564
542
517
494
482
476
478
492
515
544
563
569
572
572
574
574
575
578
579
580
566
540
513
489
474
465
467
479
501
529
546
551
551
551
551
551
551
554
557
560
549
525
500
476
462
453
455
468
490
518
535
540
543
542
544
543
545
547
550
553
542
518
491
467
452
444
446
460
482
512
530
536
537
536
537
537
537
540
543
546
535
511
487
462
448
439
441
455
478
507
525
531
534
534
536
536
538
542
544
548
537
512
486
463
449
442
445
460
484
515
536
543
546
547
551
554
561
568
575
585
579
560
537
515
500
489
486
493
504
524
533
532
527
518
512
505
498
493
485
477
453
416
376
337
306
284
273
277
294
320
342
351
359
366
374
382
391
403
416
431
432
420
406
396
392
398
413
439
473
513
542
557
565
571
576
579
583
588
591
596
586
563
538
514
500
492
492
505
528
558
577
583
586
587
588
589
591
593
596
601
592
568
543
518
502
493
492
507
527
557
577
583
587
587
588
588
588
592
595
599
590
566
540
515
500
492
492
507
528
559
580
588
590
590
591
591
592
595
599
603
593
569
541
516
499
489
489
502
523
552
573
579
582
583
583
583
583
587
589
592
584
561
535
511
495
487
487
500
520
551
572
579
583
583
585
585
588
592
594
600
591
568
543
518
502
493
493
507
527
556
577
584
588
587
589
589
591
594
595
600
591
569
543
519
503
495
495
508
528
558
579
587
590
591
592
594
595
598
601
606
599
575
549
525
508
499
497
510
531
560
580
588
591
591
593
594
595
599
601
605
598
575
549
524
508
498
498
511
533
561
583
593
595
595
596
596
598
600
603
607
600
575
547
522
505
495
494
507
527
555
577
586
588
587
588
588
588
590
591
594
587
563
538
513
496
486
484
496
515
543
564
571
574
574
575
576
575
578
580
583
577
555
530
506
489
481
479
489
510
537
560
567
569
568
568
567
568
571
572
575
568
545
518
494
475
465
462
472
491
518
539
545
547
546
546
546
545
548
549
553
545
524
496
471
452
442
440
450
470
496
517
524
526
525
526
525
524
527
528
531
526
503
477
453
435
426
423
434
453
480
503
510
512
512
512
512
511
512
514
518
511
489
462
437
419
409
407
419
437
466
489
499
502
502
503
504
504
507
511
514
509
488
463
440
423
415
414
425
444
472
496
504
506
506
508
510
511
514
517
521
517
495
469
444
425
415
414
424
444
472
496
505
509
509
510
510
511
515
517
521
517
495
470
446
429
420
417
428
448
475
498
506
509
509
509
510
509
512
515
519
515
494
468
443
425
415
411
421
439
466
489
497
501
502
503
504
504
508
510
513
510
489
465
441
423
412
411
420
439
465
489
499
503
503
504
505
507
509
512
515
512
492
467
443
425
415
412
421
440
467
492
502
505
505
506
507
508
511
513
517
512
493
468
444
427
417
414
425
444
471
494
503
505
506
506
507
507
511
513
516
513
494
469
444
428
418
415
425
442
469
493
503
506
506
507
507
508
512
515
519
515
495
471
446
430
421
419
430
448
476
499
509
512
512
513
513
515
518
521
526
522
503
478
453
435
424
421
431
449
476
500
510
512
513
514
515
515
518
519
524
521
501
476
451
433
423
419
428
446
472
496
505
509
510
510
510
510
512
514
518
516
497
472
447
429
419
417
426
444
470
494
503
508
509
510
510
511
515
518
523
521
504
480
456
440
432
430
440
459
484
510
520
524
524
526
527
527
530
532
536
534
514
489
464
446
435
431
440
456
483
508
519
523
523
523
523
523
524
524
527
523
504
479
454
435
425
421
430
448
474
497
508
510
509
508
508
507
509
511
514
513
494
467
441
420
408
403
410
428
452
476
487
489
491
491
491
491
492
494
496
495
475
450
426
407
395
391
400
418
442
467
478
482
482
483
485
486
488
491
495
494
476
449
425
407
396
392
400
418
444
470
480
484
485
487
488
489
492
495
499
499
482
458
433
414
404
403
413
432
460
488
502
509
510
513
515
519
526
533
543
547
534
514
492
475
463
458
461
470
485
499
500
493
484
476
469
464
460
455
449
439
408
370
331
296
270
250
243
249
266
287
298
304
309
316
325
335
348
361
375
384
378
365
352
347
350
359
381
411
447
483
504
515
524
530
535
539
543
548
554
553
537
514
489
470
458
454
461
478
502
527
539
543
544
546
546
547
549
551
556
556
540
515
491
472
460
455
462
478
502
528
538
542
543
544
544
545
547
550
553
554
537
513
488
468
457
451
458
475
499
523
536
540
540
542
542
542
545
547
552
551
535
511
486
467
456
451
457
473
497
522
535
539
539
540
540
540
544
546
550
551
534
511
486
467
455
451
457
473
498
524
537
542
543
545
544
546
548
550
553
554
538
515
491
472
459
455
461
477
501
527
539
545
545
547
547
549
551
551
556
557
541
518
492
472
461
457
463
478
503
528
542
546
548
549
550
551
553
556
560
561
544
520
496
476
465
459
465
481
506
532
545
551
552
553
554
555
556
559
562
562
546
522
497
478
466
461
467
481
507
531
544
549
550
551
552
553
555
556
559
557
543
518
495
475
463
457
463
478
502
527
540
545
546
547
547
549
551
553
558
558
543
520
496
476
463
457
462
476
499
524
537
542
542
543
544
545
546
548
551
551
536
513
488
468
455
449
455
468
490
515
527
530
531
530
529
530
531
533
535
535
519
495
469
448
433
427
431
444
466
491
504
506
505
504
504
504
504
506
508
508
492
467
442
422
408
403
408
423
445
471
484
489
490
491
492
493
495
497
500
502
487
464
439
418
406
400
405
419
443
469
482
486
487
488
489
491
492
495
499
500
486
462
438
417
405
400
405
420
444
470
486
490
493
494
494
495
497
499
503
505
491
468
444
424
412
407
412
427
451
478
492
496
498
498
499
499
501
504
507
510
495
472
449
429
417
412
416
431
455
481
495
500
502
502
503
504
506
508
512
513
499
476
450
431
419
413
416
432
456
482
497
502
504
505
506
507
511
513
517
518
504
481
456
436
424
419
423
437
460
486
501
507
508
509
508
510
513
515
519
521
508
485
460
439
425
419
422
436
457
483
497
502
503
504
505
506
507
510
513
516
503
480
456
435
422
415
418
433
455
480
496
500
503
504
504
506
508
510
514
515
502
479
454
433
419
414
417
430
453
478
493
499
499
500
500
501
504
506
511
513
501
479
454
433
419
414
417
430
452
478
494
500
502
504
504
504
507
509
512
513
500
477
451
431
417
410
413
426
449
475
492
497
499
500
500
502
504
507
511
512
501
480
455
435
419
413
416
430
451
480
496
502
504
504
505
507
508
511
515
516
505
482
456
436
421
415
417
430
452
479
494
499
500
501
501
501
503
505
509
511
499
477
451
430
417
410
413
427
449
476
492
497
499
501
501
503
504
507
510
512
501
479
455
435
420
414
416
429
451
479
496
503
504
505
506
507
508
511
514
518
507
485
460
439
425
419
421
435
457
484
502
508
512
515
517
521
525
529
535
538
529
508
484
464
450
444
447
461
483
510
528
533
536
537
538
540
542
545
549
551
541
520
495
474
458
449
448
460
479
505
521
527
528
529
530
531
533
535
539
540
530
507
481
459
443
436
437
449
471
498
515
522
523
524
524
524
525
528
531
532
521
498
473
451
436
430
430
442
462
488
505
511
511
512
512
512
514
516
519
523
512
490
466
446
431
425
427
439
460
486
505
511
513
515
515
518
519
522
525
528
518
496
472
451
436
430
431
445
467
494
512
519
521
525
527
531
536
541
547
553
547
527
504
485
472
470
475
493
519
551
573
583
587
590
588
583
574
565
555
543
521
488
452
420
397
382
375
378
386
399
401
392
380
364
347
333
323
316
317
321
318
303
287
275
272
276
289
314
348
389
423
446
466
483
501
519
535
550
566
577
577
560
540
521
508
503
505
518
539
565
584
590
592
594
595
596
599
601
605
608
600
578
552
531
515
508
509
521
542
567
586
593
595
596
595
596
598
599
603
604
597
575
551
530
515
507
508
519
541
567
585
592
593
594
593
594
595
597
600
601
593
571
545
525
509
501
502
513
534
560
579
586
588
590
591
593
593
595
599
602
594
572
547
525
510
502
502
513
533
560
579
585
587
587
587
587
588
590
593
595
587
565
540
519
502
495
495
507
527
553
573
581
583
585
584
586
587
590
593
597
590
568
543
522
505
499
499
510
531
558
577
584
585
587
586
588
588
591
594
597
590
568
544
523
507
499
500
511
531
557
577
584
587
588
588
589
591
593
597
599
591
569
545
523
507
499
499
511
531
557
578
586
587
589
590
592
592
595
598
600
593
572
547
525
508
500
500
510
530
555
577
583
585
586
586
588
588
591
594
596
590
567
542
519
502
494
494
505
524
549
569
576
578
580
578
579
579
580
583
587
579
557
532
510
493
485
484
494
513
537
558
564
565
566
565
565
566
568
570
572
564
543
517
494
475
466
464
473
492
517
536
541
542
542
540
541
540
541
542
544
537
515
490
467
449
440
439
450
470
494
515
523
524
524
523
524
524
527
529
531
525
503
478
455
438
429
428
438
457
483
505
512
514
515
515
517
517
520
524
527
521
500
475
453
435
426
425
435
456
482
504
512
516
517
518
520
521
524
528
531
526
505
480
457
440
431
429
440
459
484
506
514
516
517
516
518
519
522
526
529
525
505
481
460
442
433
432
443
463
489
512
520
523
524
524
527
528
530
533
536
532
511
487
465
447
439
438
448
467
493
515
523
526
529
529
531
532
534
537
539
534
512
488
465
448
439
438
448
468
495
518
527
529
530
531
532
534
536
540
543
539
519
494
472
455
447
445
455
475
499
522
530
532
533
532
533
535
536
539
541
536
515
489
467
449
440
439
448
467
493
515
524
527
528
528
530
531
535
537
540
536
515
489
466
448
439
437
447
466
492
514
523
525
527
527
528
530
532
535
536
531
511
486
464
446
438
435
446
465
491
512
521
524
525
525
525
526
528
531
535
532
511
486
463
444
435
432
441
459
484
507
515
519
520
520
522
523
526
528
531
528
508
483
459
441
433
430
438
456
481
504
512
515
516
516
516
517
520
523
527
523
504
480
457
439
429
426
435
454
480
502
510
514
515
515
516
517
520
523
526
523
504
479
456
438
428
426
435
455
480
504
512
514
515
515
517
518
520
523
526
524
504
480
457
439
431
428
436
453
478
502
511
513
514
515
515
515
519
521
524
523
504
478
455
437
429
427
436
454
479
503
512
514
516
514
515
515
518
521
524
521
501
476
453
435
425
423
432
449
474
496
505
507
508
508
510
510
513
516
520
519
500
477
453
435
425
423
431
450
475
499
507
511
512
513
513
515
516
519
522
520
500
476
453
435
425
423
432
449
475
500
511
516
519
521
525
528
532
536
541
541
522
497
473
454
444
440
448
466
490
514
524
527
529
529
530
531
533
535
539
536
517
493
469
450
439
433
440
455
478
500
508
512
513
512
514
514
516
519
521
519
498
472
449
430
419
415
423
439
462
486
495
497
497
496
498
497
499
500
502
498
479
454
430
411
400
394
401
417
441
464
472
474
475
475
477
477
478
480
483
481
463
438
416
397
388
384
393
410
435
458
467
471
472
472
473
475
477
480
483
483
464
440
416
397
387
383
391
408
432
458
469
474
477
480
483
486
492
497
503
503
486
464
444
430
426
429
443
467
496
524
536
540
537
531
521
510
499
488
478
465
435
401
369
339
318
301
294
293
301
307
300
285
268
254
246
241
242
247
256
263
255
243
233
227
230
237
259
288
327
367
393
413
430
446
462
475
487
500
510
515
503
481
460
442
433
430
438
455
478
504
512
516
517
516
517
518
519
522
524
524
507
482
460
440
431
426
433
450
474
499
509
512
513
514
516
516
519
521
524
523
506
481
457
438
429
423
430
446
469
494
504
508
510
508
510
510
513
515
518
518
500
476
454
435
425
420
427
444
467
492
502
505
507
507
508
508
510
512
515
516
497
473
450
431
421
415
421
437
460
484
495
498
500
500
501
503
504
507
509
508
490
466
441
423
411
405
411
427
451
477
488
493
495
494
495
497
499
502
505
505
489
465
441
423
412
408
415
430
454
478
489
492
494
494
495
496
499
502
504
504
488
464
441
422
411
406
414
431
454
480
491
493
495
496
496
498
501
505
508
508
490
466
442
423
413
409
417
433
457
482
495
498
501
503
504
506
509
513
515
517
499
475
451
433
422
418
426
443
467
494
505
509
511
511
512
512
515
517
519
520
504
479
457
436
424
420
427
443
467
493
505
509
511
510
511
510
512
514
517
518
501
477
454
433
423
418
424
440
465
491
504
508
510
509
511
511
513
515
518
519
502
478
453
432
422
415
421
436
460
487
500
505
507
508
509
510
511
513
516
516
499
475
451
431
420
415
421
437
462
489
503
507
508
508
510
511
514
519
522
524
507
482
459
438
427
423
429
445
468
494
508
512
515
515
517
519
521
525
528
530
516
492
469
449
438
433
440
457
481
509
523
528
531
532
534
536
539
544
547
549
535
512
488
468
457
453
458
475
499
527
540
545
549
549
551
552
554
558
560
561
546
523
501
482
471
467
472
487
511
536
550
556
558
559
560
562
564
568
572
576
562
539
517
498
487
481
487
502
524
551
566
571
574
574
576
577
580
583
585
588
575
552
530
511
500
496
502
517
540
565
580
585
589
590
594
599
603
609
614
619
609
590
570
552
545
542
549
566
590
617
634
642
647
650
652
655
660
666
670
673
661
640
618
600
589
585
590
604
626
652
667
673
676
679
680
683
687
692
696
700
687
666
643
623
611
607
610
624
647
672
688
695
700
702
707
711
716
723
729
733
723
704
685
668
659
658
664
681
705
735
753
763
770
775
781
788
796
807
819
832
830
819
809
799
798
804
820
847
880
918
945
961
976
987
999
1010
1019
1022
1022
1022
1022
1022
1012
998
990
989
994
1010
1022
1022
1022
1022
1022
1022
1022
1023
1022
1022
1022
1022
1022
1022
1022
1022
1021
1016
1019
1022
1022
1022
1022
1022
1023
1022
1022
1022
1022
1023
1022
1022
1022
1022
1023
1022
1022
1022
1022
1022
1022
1022
1022
1022
1023
1022
1022
1022
1022
1023
1022
1022
1022
1022
1022
1022
1022
1022
1022
1022
1022
1022
1023
1022
1022
1022
1022
1022
1022
1023
1022
1022
1022
1022
1022
998
982
972
970
979
995
1016
1022
1022
1022
1021
1020
1018
1016
1016
1015
1014
998
973
947
923
907
898
897
909
926
949
959
962
962
960
958
957
956
959
960
963
949
926
902
879
864
856
856
868
886
911
923
926
926
925
924
924
925
927
929
931
917
892
868
846
832
824
824
837
855
879
892
892
892
888
885
885
883
885
883
883
870
844
820
798
785
779
781
795
815
841
858
863
867
867
869
872
874
879
883
887
879
857
837
815
801
796
796
809
828
850
864
864
864
860
857
854
851
850
847
845
830
801
774
748
730
718
715
724
740
760
771
771
768
763
758
753
749
746
742
740
722
694
665
639
621
609
607
615
632
653
664
663
660
655
652
649
648
650
650
652
639
616
592
571
555
545
546
558
579
607
626
635
640
642
642
642
639
636
626
613
587
548
508
474
446
428
419
421
431
442
442
430
412
392
372
353
335
318
305
295
278
254
231
215
209
211
223
244
275
311
337
355
370
383
399
414
431
448
464
479
477
463
444
428
417
412
415
427
448
473
489
494
494
494
494
494
494
495
497
499
487
465
441
420
406
399
400
412
431
455
471
475
474
475
474
474
473
474
476
476
463
440
416
394
380
372
372
383
402
427
442
448
448
448
448
448
448
448
449
449
438
414
389
368
353
346
346
356
376
399
414
417
416
416
417
417
418
419
421
422
411
388
363
342
327
320
321
331
350
373
387
391
391
389
387
386
384
385
386
388
377
354
329
308
293
286
286
295
313
336
351
355
356
356
357
357
358
359
361
365
354
334
310
289
275
268
268
281
301
327
343
348
350
351
352
351
352
353
354
356
346
325
301
281
267
260
262
273
295
320
337
343
344
346
348
348
349
352
355
357
348
327
304
284
271
265
267
279
300
324
341
348
350
351
352
354
356
360
364
367
358
338
315
297
284
278
280
293
313
338
356
362
364
364
364
364
364
366
368
371
362
342
318
298
285
279
280
291
312
337
354
360
361
362
362
362
362
364
366
368
359
339
315
295
281
275
277
288
307
332
350
355
357
358
358
358
358
359
362
365
356
335
312
291
276
269
270
280
299
323
338
343
343
343
342
342
342
344
347
349
340
319
296
275
261
254
255
268
286
311
327
332
332
333
332
333
333
334
336
338
328
307
283
262
248
241
243
254
275
300
318
324
325
326
327
329
331
332
334
337
330
310
287
267
254
248
249
262
282
308
327
333
334
336
338
340
342
346
348
353
345
326
303
283
270
263
265
276
297
323
342
349
353
353
354
356
358
361
364
368
359
339
316
295
282
276
278
289
310
336
355
362
365
366
367
369
370
373
377
381
374
354
332
311
298
293
295
307
327
355
373
380
383
383
384
385
387
390
393
397
389
369
348
327
313
307
308
320
342
369
387
395
398
401
402
403
404
407
409
413
406
387
363
344
330
323
324
335
355
381
400
407
409
411
411
412
412
415
417
421
412
391
368
347
333
326
326
337
357
383
401
408
409
409
410
411
412
414
416
419
411
391
368
347
332
326
326
339
358
384
403
409
412
412
412
413
415
418
419
422
414
393
369
347
332
324
323
335
354
380
399
406
408
409
409
409
411
413
416
418
411
390
366
344
329
322
322
333
354
379
398
405
407
408
410
410
410
412
415
417
411
391
366
347
331
325
325
337
355
383
402
409
412
413
415
415
416
419
423
425
419
399
375
354
340
333
333
344
364
390
411
419
421
422
423
424
425
428
431
433
428
408
385
364
350
344
345
355
375
401
420
427
429
431
432
433
435
437
440
444
438
419
395
376
362
355
357
369
389
415
436
444
446
447
449
449
451
454
457
460
454
433
409
390
376
368
368
380
399
425
444
451
453
454
454
455
454
456
459
460
455
436
412
392
377
370
370
381
400
426
447
453
455
457
457
459
459
462
464
467
462
442
419
399
384
376
375
386
406
432
452
459
461
461
461
461
462
464
467
471
465
446
425
404
390
384
384
397
418
446
470
480
484
486
487
489
490
493
495
498
493
475
452
432
418
412
412
423
441
467
489
497
500
500
501
502
503
506
507
510
504
482
458
435
415
406
404
413
432
456
476
484
485
485
485
485
485
487
487
491
483
463
439
415
399
391
388
398
415
437
457
463
465
463
463
463
463
464
465
468
463
442
418
394
377
368
366
376
395
420
441
449
451
452
452
454
455
457
462
463
459
440
417
396
381
373
371
380
400
425
447
455
457
458
458
460
461
464
467
470
465
446
422
400
383
375
373
385
404
432
456
468
473
476
479
481
483
487
492
498
498
484
466
449
438
432
431
440
457
475
487
483
473
461
450
440
431
425
421
416
403
375
339
304
274
250
233
226
230
240
252
254
256
260
267
276
287
299
312
328
336
331
320
313
311
318
332
357
391
429
465
484
498
508
515
522
527
532
537
542
540
522
501
479
464
456
455
465
484
508
530
539
541
543
542
543
543
545
547
550
546
527
504
483
468
460
458
468
487
511
531
540
542
542
542
542
542
543
545
547
543
524
500
477
461
453
451
461
478
504
525
534
537
537
538
539
540
543
545
549
547
528
504
485
471
464
462
470
487
511
529
536
538
538
538
538
538
539
540
542
538
520
498
478
463
456
454
464
482
505
526
534
536
538
538
539
540
543
545
548
545
528
507
488
475
468
467
478
494
518
537
545
547
547
547
547
547
547
549
552
549
532
511
491
476
469
469
478
496
519
540
547
548
549
548
549
549
551
553
554
552
534
512
491
475
468
465
474
491
513
534
541
544
544
544
545
546
548
551
553
551
534
513
495
481
476
474
484
501
523
544
552
555
553
554
555
555
557
559
561
559
541
521
501
487
480
478
487
504
527
547
555
558
558
558
559
559
560
562
563
561
543
522
503
487
481
479
487
503
525
545
551
553
553
553
553
554
556
558
560
559
541
519
497
482
473
470
478
494
516
536
543
544
544
542
541
540
541
543
543
541
524
502
481
466
457
454
462
478
501
521
528
529
528
527
527
526
526
527
529
527
510
487
465
451
442
438
446
462
484
504
512
513
513
512
513
513
513
515
517
515
497
476
456
442
434
432
439
455
478
497
505
507
507
508
508
509
512
516
519
519
503
481
463
447
439
436
443
459
481
502
510
511
512
512
513
513
514
516
519
517
500
480
460
446
439
436
443
460
482
504
513
516
517
517
516
516
518
520
523
522
505
485
466
451
445
443
452
468
489
510
519
521
521
520
521
523
524
526
529
528
512
493
473
459
451
449
457
473
496
516
524
527
527
527
529
529
533
536
541
540
525
506
489
477
471
470
479
494
517
538
547
550
551
553
553
555
556
558
560
560
545
526
508
494
487
486
494
510
531
553
562
566
565
564
564
564
565
568
570
569
553
533
514
499
492
490
499
514
535
555
564
568
567
567
567
567
567
567
570
570
555
535
515
500
492
489
495
509
529
550
559
560
560
560
560
561
561
564
565
565
549
528
510
495
486
483
488
502
522
541
550
552
553
552
553
554
555
556
559
557
542
523
504
489
482
480
485
499
518
537
546
550
550
550
551
551
552
555
557
557
543
523
505
491
483
481
487
500
519
538
546
548
548
548
548
548
549
551
553
552
537
518
499
485
477
475
480
495
513
532
540
542
541
540
541
542
543
546
549
549
536
516
497
482
474
472
478
491
510
531
539
541
542
541
541
540
542
544
546
547
532
513
494
479
471
468
474
486
506
526
534
537
538
540
542
543
546
550
555
556
545
527
511
499
491
490
497
512
534
557
569
575
578
583
588
593
600
607
614
618
608
593
579
569
564
565
575
591
612
636
647
654
655
657
660
662
665
668
672
673
660
642
625
612
605
604
610
624
646
666
676
680
681
681
681
682
683
685
688
688
673
654
635
621
612
608
613
626
644
665
673
676
675
675
676
677
677
679
680
680
665
646
625
608
597
591
592
602
619
637
643
643
642
640
639
637
635
635
635
632
617
595
574
558
548
543
547
559
577
596
604
604
603
602
600
598
597
597
598
597
582
559
536
516
506
501
504
517
536
558
569
571
572
571
571
569
569
569
570
569
554
531
509
490
477
471
475
486
506
526
535
536
535
533
533
531
530
530
531
530
515
493
472
455
446
442
446
461
481
505
518
522
524
527
529
531
534
537
541
543
531
512
495
482
477
478
487
504
527
552
562
563
559
552
543
535
528
520
515
508
487
460
434
411
393
380
373
374
380
387
383
372
357
346
339
335
334
338
343
347
338
323
310
300
300
304
317
339
369
401
422
436
446
458
469
480
490
499
508
515
505
488
471
457
450
448
454
468
489
510
520
522
522
522
521
521
520
522
524
525
512
492
472
455
447
444
448
462
481
502
512
515
515
515
516
517
518
521
523
525
513
493
473
457
449
444
447
460
480
502
513
515
515
514
515
515
515
517
519
519
507
485
464
447
436
432
436
451
470
493
505
508
508
507
508
509
510
511
513
515
502
482
460
443
433
431
434
448
467
489
501
503
505
504
505
505
505
507
508
509
497
478
460
444
435
432
437
451
470
492
503
505
505
505
505
505
506
509
511
513
502
482
464
448
439
435
440
452
472
494
504
505
507
507
507
507
507
509
510
512
500
480
462
446
436
433
436
447
466
486
496
498
499
499
500
501
502
505
508
509
498
479
459
444
435
432
435
447
467
487
498
502
502
502
502
503
503
506
509
510
499
479
460
444
434
431
435
446
464
486
496
499
499
499
500
500
503
504
507
509
498
479
459
443
434
431
433
445
464
487
499
503
504
505
505
505
506
508
510
511
501
481
462
444
434
431
433
446
464
487
499
502
503
503
503
503
503
505
507
508
498
478
457
440
430
426
429
441
460
483
496
500
500
501
500
500
501
504
505
506
496
476
455
438
427
422
425
437
455
476
488
490
490
489
489
489
489
490
492
492
481
462
441
425
414
410
413
425
444
466
479
484
483
483
484
486
486
487
490
492
482
463
443
427
416
412
415
427
445
467
480
482
483
483
483
484
485
487
489
492
483
462
443
427
416
412
415
427
446
470
483
487
487
487
487
488
488
490
493
494
484
463
443
427
416
413
415
427
447
468
482
486
487
489
489
488
488
490
494
495
487
468
448
431
421
417
418
429
447
468
482
486
488
489
488
490
491
492
493
495
485
465
445
428
416
412
415
425
444
467
480
484
485
486
486
486
487
488
490
492
483
464
445
428
417
413
415
427
445
467
480
485
486
486
487
487
488
490
492
494
485
466
447
430
419
415
417
429
447
470
483
487
489
489
491
492
494
494
496
499
489
472
454
438
429
425
427
438
455
479
493
497
499
499
499
499
499
501
504
506
497
479
457
441
430
425
428
438
456
478
491
496
497
497
498
499
500
504
507
510
503
484
467
452
443
440
444
456
473
495
508
511
513
515
516
518
518
520
523
525
517
499
481
467
458
455
458
468
486
507
520
525
524
524
524
526
527
529
533
535
527
510
491
475
466
462
465
475
492
512
524
526
527
526
526
526
526
528
529
531
523
504
486
471
460
456
457
467
484
503
515
518
518
516
516
516
515
518
520
521
514
497
478
461
450
445
447
458
474
494
507
510
510
511
511
512
513
516
517
519
511
494
476
461
450
446
448
458
475
494
507
509
510
509
509
509
511
512
514
517
510
493
476
463
453
451
455
467
483
504
517
521
521
521
522
523
523
526
529
531
524
508
490
475
464
460
462
471
486
506
519
521
521
521
521
520
518
518
518
519
510
492
473
458
447
443
443
453
468
487
499
500
499
497
498
498
496
497
499
500
492
475
455
439
427
422
421
429
444
463
474
476
476
476
476
475
475
476
478
479
472
454
436
419
410
406
406
415
432
450
463
465
465
465
464
465
466
467
469
471
464
447
428
413
401
397
398
407
423
442
455
458
459
460
459
461
462
465
467
469
463
445
428
414
404
400
403
415
433
457
472
478
480
481
483
487
491
499
507
514
513
499
483
470
460
454
448
447
451
457
457
449
439
430
423
416
410
405
398
389
369
339
308
278
251
231
217
216
224
240
255
262
270
279
288
299
311
325
338
352
358
354
350
348
353
364
380
401
428
458
481
492
499
502
507
510
512
516
519
523
517
501
484
468
458
454
455
463
478
498
512
516
517
518
518
518
518
521
523
526
521
504
487
472
460
455
455
464
480
499
512
516
516
517
517
518
520
522
524
524
518
502
484
467
457
452
452
461
476
495
508
512
513
512
512
513
513
515
518
521
516
500
483
467
456
451
451
461
476
495
509
512
513
514
514
515
516
518
521
525
520
504
487
471
460
456
457
466
481
501
516
520
522
522
524
526
526
527
530
531
526
510
492
476
466
462
461
471
485
505
520
524
524
525
525
527
528
531
533
534
530
514
496
480
469
465
464
473
488
508
522
527
530
530
530
531
532
533
535
537
534
517
500
484
473
468
468
476
491
510
524
529
530
529
530
531
532
535
536
539
534
518
501
484
474
470
469
477
492
512
527
531
532
532
533
535
536
538
540
542
537
520
503
487
475
471
469
478
493
512
526
531
531
532
532
534
533
536
539
540
536
520
502
486
475
470
468
477
492
510
524
528
529
528
529
530
529
531
534
536
531
515
497
482
470
464
463
470
484
502
515
518
519
518
516
516
514
515
518
519
514
498
478
463
450
444
441
449
462
480
494
498
498
498
497
497
496
497
498
500
496
478
460
444
431
426
424
433
448
466
482
486
487
487
488
488
487
489
489
492
487
472
455
440
431
427
426
436
450
469
484
488
490
491
491
491
491
494
496
499
496
481
465
450
439
434
433
442
457
476
492
496
498
500
500
502
503
506
510
512
509
494
477
461
451
446
446
455
469
489
505
510
512
512
512
514
515
519
520
523
520
506
489
474
463
458
457
466
480
499
515
521
523
524
525
526
527
529
531
532
529
514
496
479
468
464
463
472
487
507
523
527
528
529
529
529
529
531
532
535
532
516
499
483
473
468
467
476
489
507
522
527
529
530
531
531
532
533
535
538
536
521
505
490
479
473
472
478
493
511
526
531
532
533
534
534
535
536
538
540
538
522
504
487
475
469
467
476
488
506
522
525
526
522
519
517
515
516
518
518
515
501
483
467
456
451
450
459
475
494
510
515
519
519
520
521
522
525
527
530
528
513
496
480
468
463
462
471
485
504
520
527
527
529
529
531
531
534
536
538
536
521
503
487
475
469
468
476
491
508
525
531
531
531
530
531
531
534
536
539
536
521
504
487
475
469
467
475
490
508
525
530
531
531
533
534
535
538
540
543
542
527
508
492
480
476
473
480
495
512
529
534
535
535
535
537
537
540
542
544
543
528
511
495
482
477
475
483
498
516
533
538
539
539
539
540
540
541
543
544
542
527
509
492
480
473
471
478
491
509
526
530
531
532
531
532
533
535
536
538
537
523
505
490
477
472
469
476
488
506
523
527
528
529
528
529
528
531
532
534
532
516
498
483
470
464
462
470
484
502
518
523
524
525
524
524
523
526
527
530
528
512
495
479
465
460
457
464
478
497
514
519
521
520
520
521
520
521
523
525
522
507
489
472
460
454
451
457
470
489
506
512
513
513
513
514
513
515
519
521
521
509
492
478
467
463
462
470
484
503
521
527
530
531
531
533
534
535
536
539
537
523
505
487
474
468
467
472
485
504
521
527
528
528
527
526
524
524
522
522
519
503
484
467
453
447
444
451
463
481
498
503
504
502
500
499
499
499
500
502
500
485
466
448
434
427
424
431
442
460
477
482
483
482
481
480
478
478
479
481
480
465
447
429
416
410
407
414
426
443
460
467
469
469
469
470
468
469
470
472
471
456
438
421
408
403
400
408
421
440
459
466
466
467
467
467
467
467
468
470
468
454
435
419
407
403
402
411
427
449
470
478
479
481
483
487
492
500
508
516
521
509
495
478
462
449
436
430
430
433
438
432
421
410
401
393
383
375
365
352
336
306
272
239
209
187
171
169
177
195
217
229
240
248
258
269
280
294
307
323
336
336
333
332
335
343
354
373
397
423
449
461
467
470
472
475
476
478
480
482
482
468
449
432
419
413
410
417
430
448
465
472
473
473
472
472
470
472
474
476
476
460
441
422
408
401
396
401
413
429
446
452
452
452
451
451
451
451
452
452
451
436
417
399
384
376
372
376
387
402
418
424
425
423
422
420
419
417
417
417
414
397
377
358
342
332
326
329
339
354
369
374
371
368
366
364
361
360
359
358
355
339
319
299
285
276
271
275
287
304
321
326
326
327
325
325
324
325
326
329
328
315
297
279
266
259
256
262
275
293
311
319
321
321
321
322
322
324
327
330
332
319
303
286
273
268
265
272
286
304
323
331
335
335
336
338
339
342
345
349
351
339
322
306
294
289
286
294
308
327
348
356
359
361
362
365
366
368
373
376
379
368
351
336
323
318
316
323
336
355
376
385
388
391
392
393
395
397
401
405
407
396
380
364
351
344
342
350
363
382
402
411
415
416
417
417
419
420
424
427
429
416
399
383
369
362
359
366
380
398
418
427
430
430
431
433
433
436
439
441
443
431
415
398
385
379
377
383
396
414
434
443
445
445
445
446
446
448
450
452
453
440
423
406
392
385
383
387
399
416
435
442
442
443
443
444
444
446
447
448
449
436
419
400
386
379
376
382
394
412
432
440
444
444
445
446
446
449
451
454
455
443
426
409
396
390
387
392
405
424
445
454
457
460
460
462
462
464
467
470
472
461
444
427
415
408
406
413
425
444
465
475
479
480
481
483
483
485
488
491
494
482
465
448
433
427
425
432
445
463
483
492
496
497
498
501
501
504
507
510
511
499
483
465
452
444
441
448
460
480
500
509
512
514
514
515
516
517
520
523
526
514
496
480
465
458
455
460
472
490
511
519
521
523
524
526
527
529
532
535
536
524
508
489
475
468
465
470
482
501
521
529
532
534
533
534
535
537
539
542
544
531
513
497
482
475
472
476
489
508
529
537
540
542
542
543
543
544
547
549
551
539
522
504
491
484
480
483
496
514
534
544
546
547
547
548
548
550
552
554
556
545
528
510
496
489
487
490
502
519
540
549
552
554
553
555
555
557
560
562
563
552
536
516
502
494
490
494
506
523
542
551
554
555
553
555
555
557
559
561
563
551
535
516
502
494
491
494
506
524
544
553
556
556
555
556
556
559
560
562
564
553
536
518
504
496
491
496
507
524
544
553
557
557
556
557
556
558
560
561
563
552
535
519
504
496
494
498
509
526
545
556
559
560
560
560
559
560
562
564
566
556
540
522
508
499
495
498
509
527
546
555
559
560
559
560
559
561
563
566
568
557
540
523
508
500
496
499
510
527
547
557
561
561
562
563
563
564
566
568
571
561
543
526
511
504
499
502
513
531
551
561
564
564
566
567
568
569
571
574
576
566
550
531
516
508
504
508
519
536
556
566
569
569
570
571
571
573
575
577
580
570
554
536
521
513
509
512
523
540
560
572
574
573
573
574
574
575
578
580
582
572
555
537
523
514
510
514
524
541
561
571
573
573
572
574
574
573
576
578
581
572
556
539
526
519
516
522
535
552
575
587
592
595
596
599
600
603
605
608
610
601
583
567
551
544
540
543
554
571
591
602
605
606
606
607
607
609
611
614
615
606
588
567
550
540
534
536
545
561
581
590
593
594
592
593
592
593
595
596
598
588
570
551
536
527
523
523
532
547
565
575
576
577
575
575
574
574
576
575
577
567
549
531
515
504
499
501
510
527
546
556
558
560
559
560
560
560
561
563
564
555
539
521
508
500
496
498
510
525
545
556
560
561
562
563
564
564
566
568
570
561
545
527
512
503
498
501
512
529
551
564
571
575
577
582
583
585
589
592
598
594
583
572
563
560
561
566
579
593
610
614
607
596
583
570
558
547
538
530
523
504
477
447
417
393
371
357
351
350
352
349
343
338
336
339
344
352
363
375
388
393
389
383
381
385
394
411
438
470
505
532
549
561
572
582
588
595
601
607
611
605
590
574
559
550
545
547
556
572
591
600
605
605
605
606
606
607
608
609
612
604
587
570
554
545
541
542
553
567
586
598
600
601
601
601
601
601
603
605
607
599
582
565
550
542
536
537
547
561
579
590
593
594
592
593
592
592
595
596
598
590
573
556
541
531
527
527
538
552
571
582
585
585
585
586
585
586
589
590
592
585
569
551
536
527
521
521
530
545
564
575
579
579
579
580
581
582
584
587
590
583
567
548
534
525
518
519
528
544
563
575
579
580
580
582
581
582
583
586
590
581
565
547
532
522
516
518
527
543
561
573
577
577
578
578
579
579
580
582
585
578
563
545
531
523
518
519
529
544
563
575
579
580
580
580
580
582
583
585
589
582
567
550
535
524
520
519
530
545
564
576
581
581
581
582
582
583
584
587
589
582
565
549
533
523
517
517
526
541
560
573
576
579
577
578
578
578
580
580
583
576
560
542
527
517
512
512
521
534
553
564
568
570
570
572
572
574
574
576
579
573
556
539
522
512
507
506
514
527
546
558
561
561
560
560
559
560
560
561
564
558
540
522
506
495
488
487
495
508
527
538
541
540
539
538
536
536
537
539
540
532
515
497
481
470
464
464
472
486
505
517
521
522
523
523
523
524
526
528
530
524
508
490
475
466
460
460
468
481
499
513
516
518
517
517
517
518
522
525
527
521
506
488
473
464
459
460
468
483
503
515
520
523
523
524
525
526
528
531
534
528
512
497
481
471
466
467
474
488
508
521
524
527
527
527
527
527
529
531
534
528
514
496
480
470
466
466
476
491
511
524
527
530
530
531
531
531
534
536
538
532
517
500
486
475
469
469
478
492
512
527
531
534
535
536
536
536
539
541
543
539
524
506
490
479
473
473
483
497
516
529
533
534
535
536
536
538
539
540
543
538
521
504
487
476
469
467
476
490
510
523
527
528
527
527
527
528
531
532
535
530
514
498
483
472
467
467
476
489
509
521
526
527
527
527
527
529
532
534
536
531
516
499
483
472
468
466
475
489
509
524
529
530
531
532
532
533
535
536
540
535
519
501
485
475
469
468
476
490
509
523
527
527
528
529
530
531
534
536
540
536
521
504
488
478
472
472
479
494
513
527
532
533
534
534
534
535
537
538
540
537
520
504
487
477
472
471
480
494
513
527
531
534
534
535
534
536
539
541
544
540
526
510
494
483
478
478
485
499
518
532
536
537
536
536
537
538
540
543
545
541
526
508
492
482
476
476
483
497
516
529
534
535
535
534
534
534
536
538
541
537
523
506
491
480
475
474
481
494
514
529
534
536
536
537
536
537
540
541
543
540
525
507
491
479
474
472
480
494
513
528
534
536
536
536
537
537
540
542
545
540
526
509
492
481
475
474
483
496
515
529
535
537
536
537
537
538
540
541
544
541
526
509
492
481
475
473
481
495
515
530
536
538
538
540
540
541
543
544
547
543
527
510
494
481
475
473
480
494
512
527
532
533
533
535
534
535
536
537
539
535
519
503
487
476
471
470
478
492
510
524
529
531
532
532
533
535
536
539
543
542
528
512
496
486
479
479
487
501
519
534
541
543
543
545
546
548
551
553
556
556
540
524
507
497
491
491
499
513
532
547
551
552
552
551
548
545
545
544
545
541
526
507
491
479
471
469
476
489
507
521
526
527
526
526
525
526
527
527
529
525
510
492
475
463
455
452
459
470
488
503
508
509
508
508
506
506
508
510
512
509
494
476
460
449
442
440
447
460
478
494
499
500
501
502
501
502
502
505
509
506
493
476
459
448
441
441
448
461
480
496
503
505
505
505
504
505
507
509
513
513
502
488
475
467
464
465
473
487
508
526
535
541
547
553
560
566
571
575
581
577
560
535
509
487
470
456
453
456
464
472
470
462
451
440
426
411
398
384
370
352
323
292
268
252
244
244
255
274
300
324
341
353
364
376
387
399
413
428
446
459
460
455
451
452
455
461
474
491
513
531
541
544
546
548
549
550
552
553
556
554
540
523
506
495
487
486
492
505
524
540
546
547
547
547
548
548
550
553
556
555
542
524
508
496
488
486
493
505
524
540
547
548
550
550
551
551
552
555
557
555
543
525
508
495
489
487
493
505
524
540
545
547
545
545
546
547
549
551
553
551
539
522
504
492
485
483
489
502
520
537
545
547
547
549
550
551
553
555
557
555
540
523
506
494
487
485
492
504
523
541
546
549
550
551
551
551
552
553
555
553
540
524
507
495
487
485
489
502
519
536
543
545
545
546
545
547
548
550
553
552
539
520
504
492
486
484
490
503
521
538
545
546
545
545
546
547
549
550
552
551
539
521
505
494
485
483
488
501
519
537
543
546
547
548
547
548
551
551
555
553
538
521
504
492
485
484
490
504
523
540
546
549
550
550
550
551
553
556
558
557
545
527
510
499
493
490
497
509
527
544
551
554
553
552
552
551
552
554
556
555
541
524
505
492
484
481
486
497
515
531
538
540
539
540
540
540
541
541
543
542
528
511
494
481
472
469
473
484
501
518
525
527
526
526
526
526
527
528
530
529
517
499
480
467
459
454
459
469
486
501
508
511
510
511
510
511
511
512
513
515
501
484
467
454
446
443
449
462
480
497
504
505
505
505
504
505
507
509
512
512
499
482
465
452
445
443
448
461
479
495
501
502
502
502
502
502
504
505
508
510
497
480
464
451
443
440
446
457
475
492
499
502
503
503
504
505
507
508
511
511
500
483
467
455
448
445
451
463
482
499
508
511
512
512
513
514
515
518
521
521
509
492
476
463
455
453
458
470
487
505
513
514
514
516
515
517
519
520
523
524
511
495
478
466
459
457
461
472
489
507
515
519
519
520
520
522
524
524
526
526
514
499
481
469
462
459
464
475
492
510
517
520
520
521
522
523
525
527
530
530
518
501
484
472
465
462
467
478
495
513
521
524
524
526
526
528
529
532
534
534
521
505
488
475
467
464
468
479
496
513
521
524
524
523
522
523
523
524
527
526
514
499
483
471
462
459
464
476
493
510
519
521
521
523
523
524
527
528
531
531
519
503
486
473
464
462
466
478
495
512
520
522
523
523
523
523
523
524
527
527
516
499
482
469
462
458
461
472
489
506
515
517
518
518
517
517
519
521
524
525
514
498
482
470
462
459
464
475
492
509
517
520
521
521
521
520
521
522
524
524
513
497
480
467
459
454
458
468
485
501
510
513
514
513
513
513
515
517
519
521
510
493
475
463
454
451
454
464
482
499
508
511
511
512
511
512
514
516
518
519
509
492
475
461
453
451
455
467
483
502
512
515
515
515
515
515
516
518
520
523
514
499
484
472
465
464
468
479
497
514
524
527
527
528
529
529
530
532
536
536
526
509
492
480
471
468
472
483
499
517
527
530
530
531
531
531
532
532
533
531
519
501
483
469
460
457
459
469
485
502
509
511
511
510
510
508
508
510
512
512
502
483
464
449
439
435
438
447
463
478
487
490
489
489
487
488
488
489
491
491
480
463
446
432
423
420
423
434
450
468
478
482
483
483
483
483
484
486
488
489
480
463
446
433
424
421
423
434
450
467
477
480
480
480
481
480
481
483
486
487
478
462
445
433
424
422
426
438
456
476
489
494
496
496
496
499
503
507
514
520
516
505
492
482
476
473
475
482
493
502
504
498
490
483
477
471
465
461
456
448
430
402
373
345
322
303
291
287
292
301
305
306
307
309
314
320
327
336
347
358
357
350
343
340
342
350
365
387
415
445
466
479
489
497
503
508
513
518
523
526
518
503
485
472
463
460
463
473
489
507
518
521
523
524
524
526
527
528
531
532
525
509
492
478
469
465
467
478
493
510
519
523
523
524
524
523
524
526
528
529
520
505
488
475
465
461
464
473
489
507
516
519
520
521
520
520
521
523
526
527
518
502
484
471
461
457
459
469
486
503
513
517
516
517
518
518
518
519
523
524
515
498
480
466
455
451
454
463
479
497
507
511
511
512
511
512
513
515
518
519
512
496
479
465
455
451
453
463
479
496
507
511
511
512
513
515
515
519
522
524
516
501
485
472
464
460
462
472
488
505
516
520
520
521
520
521
523
526
529
530
524
508
492
479
470
466
467
477
493
511
523
527
529
531
531
532
534
536
539
540
531
516
499
486
476
472
474
483
499
516
528
531
533
534
535
536
536
538
541
543
537
523
507
494
485
480
482
491
506
523
534
537
537
538
537
539
540
542
543
545
539
522
505
492
482
478
479
488
504
520
531
534
534
534
534
536
537
540
543
545
538
521
501
484
472
467
467
477
496
517
531
537
538
540
539
539
540
541
544
546
539
519
497
479
465
457
458
467
484
504
517
521
522
523
523
524
524
526
529
531
524
504
483
464
450
443
442
451
469
489
505
510
512
513
512
